Timestamp_s,RED,IR
0.0,86214,89784
0.1363,86161,89648
0.1363,86131,89585
0.1363,86155,89629
0.1363,86188,89732
0.1438,86177,89719
0.1566,86179,89729
0.1729,86170,89721
0.1729,86238,89781
0.1729,86222,89783
0.1782,86096,89618
0.1931,86026,89436
0.1991,85954,89335
0.2104,85857,89185
0.2222,85740,89008
0.2272,85607,88776
0.2285,85461,88549
0.2305,85361,88430
0.2317,85302,88355
0.2317,85331,88389
0.2327,85333,88405
0.2356,85368,88429
0.2356,85401,88464
0.2356,85499,88577
0.2378,85573,88652
0.2378,85623,88709
0.6438,85621,88719
0.6438,85618,88678
0.6504,85594,88648
0.6589,85548,88626
0.6589,85551,88591
0.6642,85544,88629
0.6668,85540,88614
0.6755,85526,88580
0.6812,85468,88514
0.6831,85446,88515
0.6871,85430,88503
0.694,85409,88478
0.6983,85356,88445
0.7029,85281,88333
0.7049,85215,88204
0.7101,85121,88072
0.7131,85053,87890
0.7151,84963,87694
0.7332,84888,87531
0.7363,84825,87414
0.7402,84840,87401
0.756,84871,87473
0.7581,84916,87535
0.7601,84971,87637
0.7641,85031,87727
1.1505,85047,87777
1.1578,85048,87788
1.1621,85057,87777
1.1654,85051,87791
1.1714,85066,87791
1.172,85061,87784
1.1785,85033,87762
1.1826,85040,87758
1.1856,85072,87791
1.1991,85097,87850
1.2016,85138,87914
1.2105,85156,87933
1.2115,85172,87963
1.2222,85197,88005
1.2276,85173,88016
1.2343,85142,87975
1.237,85138,87977
1.2407,85160,88017
1.2455,85195,88083
1.2506,85200,88108
1.259,85214,88145
1.2617,85246,88178
1.2647,85221,88178
1.271,85240,88198
1.2757,85276,88232
1.6341,85330,88305
1.6341,85387,88378
1.6341,85428,88441
1.6523,85458,88507
1.6557,85473,88530
1.6613,85452,88497
1.6623,85382,88426
1.6643,85331,88313
1.6658,85262,88197
1.6696,85215,88063
1.6726,85139,87899
1.6742,85061,87790
1.6785,85036,87723
1.6795,85036,87710
1.6805,85052,87750
1.681,85106,87799
1.681,85145,87869
1.6822,85157,87902
1.6832,85152,87937
1.6832,85153,87900
1.6832,85089,87833
1.6832,85069,87787
1.6832,85057,87773
1.6832,85088,87769
1.6832,85089,87814
2.1406,85065,87804
2.1406,85079,87806
2.1406,85104,87873
2.1509,85133,87938
2.1509,85168,87987
2.1509,85144,87984
2.1509,85148,87989
2.1509,85117,87975
2.1509,85092,87973
2.1509,85071,87954
2.1579,85042,87915
2.1606,85055,87919
2.1617,85082,87931
2.1628,85057,87933
2.1661,85054,87924
2.1671,85042,87941
2.1691,85066,87964
2.1712,85057,87969
2.1735,85077,87996
2.1882,85117,88048
2.1931,85152,88106
2.2013,85146,88117
2.2111,85136,88062
2.2145,85100,88045
2.2145,85060,87957
2.6445,84958,87783
2.6445,84877,87555
2.6541,84792,87401
2.6587,84715,87255
2.6587,84658,87183
2.6655,84639,87137
2.6744,84645,87121
2.7162,84636,87143
2.7172,84691,87228
2.7353,84710,87263
2.7406,84707,87252
2.7439,84635,87199
2.7577,84645,87144
2.7662,84670,87205
2.7694,84668,87209
2.7694,84680,87210
2.7768,84667,87230
2.7793,84707,87286
2.7793,84701,87326
2.7837,84715,87344
2.7848,84738,87387
2.7878,84765,87437
2.796,84763,87456
2.798,84758,87433
2.8041,84709,87414
3.132,84709,87403
3.132,84713,87421
3.1477,84698,87375
3.1514,84722,87409
3.1556,84689,87364
3.1574,84692,87356
3.1621,84699,87371
3.1631,84714,87389
3.1651,84680,87353
3.1671,84636,87275
3.1692,84614,87248
3.1736,84609,87254
3.1747,84630,87295
3.1794,84625,87302
3.1801,84591,87256
3.1801,84631,87318
3.1813,84590,87276
3.1813,84508,87020
3.1822,84353,86766
3.1822,84281,86596
3.1822,84264,86557
3.1832,84307,86601
3.1832,84322,86650
3.1832,84313,86669
3.1851,84304,86649
3.6324,84313,86656
3.648,84307,86635
3.648,84317,86660
3.6521,84355,86733
3.6541,84409,86807
3.6551,84404,86773
3.6571,84377,86723
3.6613,84354,86684
3.6633,84354,86663
3.6692,84377,86683
3.6704,84364,86689
3.6704,84362,86691
3.6714,84386,86695
3.6714,84371,86718
3.6714,84418,86785
3.6734,84457,86832
3.6757,84464,86854
3.6768,84473,86884
3.6777,84494,86900
3.6801,84474,86885
3.6806,84438,86853
3.6836,84442,86854
3.6856,84473,86884
3.6881,84486,86891
3.6893,84503,86888
4.1425,84514,86938
4.1504,84557,86979
4.1566,84562,87029
4.1582,84543,87024
4.1693,84519,87003
4.1743,84514,87013
4.1796,84552,87033
4.1807,84550,87069
4.1905,84577,87128
4.1915,84542,87113
4.1935,84442,86906
4.2008,84300,86661
4.2059,84215,86499
4.21,84222,86457
4.212,84274,86507
4.2145,84308,86613
4.2173,84341,86662
4.2183,84359,86708
4.2193,84373,86708
4.2219,84347,86655
4.2229,84373,86718
4.2292,84413,86759
4.2337,84441,86827
4.2347,84451,86840
4.236,84441,86791
4.6391,84408,86753
4.6391,84404,86758
4.6391,84425,86779
4.6391,84468,86839
4.6552,84463,86880
4.6572,84443,86878
4.6583,84457,86844
4.6593,84451,86854
4.6604,84490,86879
4.6639,84510,86948
4.6659,84503,86949
4.6674,84509,86974
4.67,84527,86945
4.67,84519,86976
4.6736,84490,86981
4.6757,84481,86932
4.6769,84443,86904
4.6879,84450,86902
4.6972,84467,86905
4.7072,84443,86893
4.7118,84410,86859
4.7151,84423,86840
4.7208,84417,86842
4.7249,84417,86873
4.7279,84363,86806
5.1497,84426,86882
5.1497,84458,86902
5.1497,84465,86930
5.1497,84442,86918
5.1595,84414,86828
5.1642,84278,86628
5.1701,84225,86463
5.1713,84185,86353
5.1838,84151,86265
5.1891,84151,86244
5.1911,84142,86280
5.1936,84180,86324
5.2021,84211,86391
5.2031,84251,86491
5.2068,84300,86569
5.2127,84342,86645
5.2146,84317,86623
5.2157,84262,86588
5.2157,84265,86561
5.2209,84273,86577
5.2228,84297,86605
5.2248,84284,86602
5.2268,84269,86591
5.2316,84265,86558
5.2336,84347,86753
5.6404,84488,87043
5.6532,84610,87240
5.6579,84658,87390
5.6609,84716,87540
5.6649,84792,87734
5.6688,84837,87923
5.6703,84878,87986
5.6713,84856,87973
5.6713,84868,88022
5.6769,84891,88172
5.6785,84898,88223
5.6807,84838,88146
5.6827,84734,87985
5.6876,84612,87830
5.6896,84544,87748
5.692,84514,87717
5.692,84446,87590
5.692,84389,87481
5.692,84346,87422
5.6959,84348,87407
5.6959,84367,87450
5.6969,84390,87483
5.6969,84449,87566
5.6979,84425,87567
5.6979,84351,87386
6.1456,84205,87052
6.1456,84067,86813
6.1456,84008,86637
6.1456,83955,86495
6.1547,83902,86388
6.1558,83872,86311
6.158,83867,86293
6.1598,83881,86320
6.1598,83903,86318
6.1791,83955,86427
6.1901,84003,86502
6.1952,83975,86487
6.1998,83948,86448
6.2075,83941,86421
6.2075,83962,86421
6.2139,83998,86465
6.2165,84031,86475
6.2291,84032,86488
6.2347,84006,86501
6.2423,84031,86509
6.2435,84060,86584
6.2477,84092,86659
6.2504,84107,86674
6.2544,84104,86654
6.2562,84106,86671
6.6484,84162,86747
6.654,84248,86911
6.654,84308,87030
6.654,84348,87093
6.654,84374,87158
6.6597,84404,87237
6.6623,84439,87304
6.6633,84467,87359
6.6662,84461,87361
6.6675,84503,87404
6.6695,84506,87434
6.6705,84512,87441
6.672,84535,87464
6.6734,84572,87524
6.6784,84618,87604
6.7183,84617,87639
6.7346,84570,87514
6.7392,84438,87274
6.7602,84335,87047
6.7636,84304,86963
6.7705,84342,87033
6.7758,84403,87124
6.7808,84442,87224
6.7846,84462,87272
6.7919,84484,87311
7.1399,84450,87284
7.1556,84499,87316
7.1556,84534,87450
7.1662,84567,87507
7.1727,84613,87507
7.1757,84589,87510
7.179,84595,87461
7.1851,84589,87465
7.1873,84598,87477
7.1873,84622,87518
7.1957,84609,87551
7.1967,84640,87548
7.1987,84635,87564
7.2009,84621,87560
7.2032,84631,87555
7.2062,84628,87551
7.2113,84634,87605
7.2123,84676,87670
7.2123,84687,87696
7.2133,84679,87688
7.2133,84692,87708
7.2143,84725,87770
7.2148,84766,87863
7.2148,84794,87944
7.2148,84812,87974
7.6456,84844,88012
7.6456,84877,88073
7.6456,84898,88137
7.6456,84881,88122
7.6456,84846,88054
7.6637,84810,88005
7.6791,84836,88023
7.689,84830,88021
7.6927,84775,87919
7.7002,84642,87678
7.7039,84511,87368
7.7059,84417,87156
7.7067,84408,87082
7.7201,84453,87151
7.7275,84523,87270
7.7319,84606,87416
7.7383,84636,87489
7.7422,84668,87552
7.749,84703,87603
7.7504,84730,87691
7.7504,84791,87799
7.7564,84841,87862
7.7584,84878,87951
7.7594,84921,88012
7.7604,84933,88031
8.1484,84966,88082
8.1484,85044,88219
8.1522,85113,88347
8.1562,85143,88402
8.1577,85141,88423
8.1601,85173,88480
8.1612,85199,88530
8.1632,85203,88510
8.1671,85200,88470
8.168,85190,88488
8.17,85232,88574
8.171,85247,88647
8.1723,85258,88676
8.1738,85211,88604
8.2041,85127,88490
8.2082,85090,88445
8.2122,85085,88454
8.2173,85092,88480
8.2205,85089,88453
8.2205,85085,88426
8.2345,85113,88449
8.2345,85100,88460
8.2446,85056,88417
8.248,84984,88314
8.2497,84941,88233
8.6569,84912,88155
8.6569,84890,88125
8.6569,84822,88013
8.6722,84712,87769
8.6758,84590,87533
8.6779,84497,87361
8.6898,84478,87317
8.6932,84518,87356
8.7023,84578,87455
8.7033,84599,87533
8.7067,84610,87549
8.7104,84574,87498
8.7144,84575,87468
8.7205,84575,87464
8.7229,84585,87468
8.7229,84565,87468
8.7277,84533,87363
8.7287,84478,87254
8.7318,84422,87160
8.7373,84412,87108
8.7383,84409,87065
8.7393,84381,87019
8.7393,84358,86994
8.7393,84344,86975
8.7403,84333,86953
9.1423,84322,86909
9.1423,84307,86889
9.1581,84309,86886
9.1581,84319,86929
9.1659,84336,86934
9.1703,84321,86924
9.1721,84321,86917
9.1867,84299,86906
9.1963,84305,86913
9.2008,84317,86911
9.2067,84303,86912
9.2094,84340,86949
9.2143,84345,86983
9.2178,84364,87032
9.2197,84435,87130
9.2244,84460,87210
9.2254,84520,87312
9.2264,84559,87401
9.2284,84585,87471
9.2284,84609,87499
9.2326,84609,87448
9.2359,84585,87397
9.2369,84624,87374
9.242,84607,87327
9.242,84596,87263
9.6676,84609,87241
9.6676,84609,87303
9.6783,84655,87392
9.6818,84708,87443
9.6854,84738,87482
9.6861,84750,87501
9.6998,84712,87446
9.7058,84666,87417
9.71,84615,87338
9.7128,84589,87335
9.7157,84566,87276
9.7363,84578,87291
9.7567,84555,87273
9.7567,84523,87235
9.7636,84545,87259
9.7656,84549,87289
9.7696,84576,87344
9.7717,84627,87393
9.7754,84641,87401
9.7922,84642,87404
9.803,84609,87384
9.8091,84636,87374
9.8125,84634,87387
9.8175,84637,87413
9.8216,84648,87426
10.1513,84662,87460
10.1513,84672,87472
10.1513,84662,87495
10.1513,84674,87532
10.1616,84716,87582
10.1632,84739,87598
10.1642,84761,87618
10.1652,84796,87691
10.1652,84849,87778
10.1652,84910,87924
10.1717,84988,88060
10.1741,84969,88054
10.1757,84930,87979
10.1767,84857,87834
10.1801,84825,87756
10.1945,84833,87799
10.1998,84868,87883
10.2067,84901,87966
10.2102,84905,87961
10.2122,84906,87990
10.2142,84872,87940
10.2229,84894,87956
10.2239,84904,87983
10.2249,84934,88028
10.2385,84929,88039
10.6635,84917,88004
10.6635,84899,87992
10.6635,84917,88006
10.6689,84922,88015
10.672,84931,88066
10.674,84952,88101
10.676,84937,88096
10.6771,84941,88127
10.6816,84964,88163
10.6826,84978,88208
10.6836,85024,88242
10.6854,85046,88269
10.6989,85052,88306
10.7064,85082,88337
10.7129,85070,88373
10.7168,85067,88353
10.7208,85058,88335
10.7267,85075,88360
10.731,85080,88369
10.732,85062,88334
10.7355,85055,88330
10.7391,85024,88315
10.7401,84986,88263
10.7411,84933,88153
10.7429,84917,88131
11.1481,84870,88067
11.1481,84882,88096
11.1684,84952,88180
11.1721,85051,88336
11.18,85088,88430
11.1847,85115,88420
11.1863,85155,88389
11.1863,85156,88419
11.1942,85269,88526
11.1952,85351,88705
11.1989,85446,88856
11.2028,85481,88941
11.2048,85477,88952
11.2077,85467,88905
11.211,85472,88905
11.214,85488,88911
11.2149,85505,88947
11.2149,85522,88981
11.2217,85510,88980
11.2248,85522,88947
11.2266,85488,88983
11.2276,85502,88987
11.2276,85532,89043
11.2276,85551,89104
11.2298,85570,89111
11.6661,85541,89085
11.6661,85490,89011
11.6708,85495,89025
11.6755,85510,89071
11.6776,85579,89213
11.679,85604,89331
11.6846,85673,89557
11.689,85737,89821
11.694,85942,90389
11.7011,86150,91184
11.7041,86392,92083
11.7071,86760,93563
11.709,86958,94659
11.7316,87205,95566
11.7348,87409,96200
11.7624,87550,96689
11.7745,87669,97094
11.7837,87801,97450
11.7971,87915,97782
11.8001,88027,98065
11.8054,88132,98302
11.8064,88260,98567
11.8129,88348,98842
11.8237,88458,99074
11.833,88531,99288
12.158,88625,99480
12.1718,88719,99596
12.1783,88818,99741
12.1867,88989,100049
12.1919,89313,100575
12.1959,89998,101817
12.2013,90853,103409
12.2033,91848,105198
12.2058,93085,107376
12.2104,94387,109798
12.2158,96645,113608
12.2198,100075,118999
12.2208,103712,124367
12.2248,106818,128601
12.2268,108812,131236
12.2283,110441,133289
12.2283,111824,134910
12.2315,112748,135890
12.2345,113445,136639
12.2369,113877,137192
12.2417,114108,137528
12.2438,114218,137801
12.2438,114199,137848
12.2448,114067,137635
12.2448,113895,137299
12.6643,113659,136838
12.6643,113229,136086
12.6735,112428,134676
12.6795,111443,132738
12.6806,110790,131018
12.6806,110674,130260
12.6929,110841,130129
12.7019,111284,130430
12.7085,111674,130885
12.7127,112087,131541
12.7157,112635,132545
12.7198,113374,134141
12.7226,114086,135725
12.7287,114503,136814
12.7313,114828,137583
12.7333,115185,138234
12.7354,115394,138792
12.7364,115559,139236
12.7384,115644,139552
12.742,115542,139769
12.7452,115419,140012
12.7472,115114,140113
12.7482,114853,140085
12.7492,114527,139948
12.7498,114193,139705
13.1532,113734,139216
13.171,113093,138402
13.1793,112334,137410
13.1793,111706,136475
13.1793,111244,135756
13.1929,110884,135222
13.1999,110597,134781
13.2039,110303,134398
13.2116,109978,133924
13.2127,109717,133543
13.2127,109453,133176
13.2226,109247,132866
13.2236,109041,132563
13.2279,108859,132259
13.2289,108699,132004
13.2311,108590,131821
13.2331,108487,131618
13.2351,108402,131497
13.2351,108373,131397
13.2376,108310,131363
13.2407,108327,131394
13.2434,108359,131412
13.2466,108319,131424
13.2476,108302,131411
13.2476,108212,131377
13.6548,108178,131350
13.6745,108088,131278
13.6834,107985,131122
13.6871,107660,130791
13.6923,107215,130205
13.696,106238,128982
13.696,104706,126261
13.7075,103500,123893
13.7136,102697,122267
13.7202,102077,120976
13.7231,101682,120210
13.7276,101501,119879
13.7323,101340,119620
13.7351,101179,119436
13.7411,101074,119189
13.7435,100907,118983
13.7445,100782,118851
13.749,100751,118763
13.7493,100712,118764
13.7513,100702,118812
13.7543,100775,118994
13.7585,100872,119214
13.7605,101054,119576
13.7605,101459,120412
13.7605,102029,121540
14.1626,102554,122362
14.1626,102881,122774
14.1626,102939,122759
14.1756,102928,122553
14.1775,102955,122573
14.181,103017,122661
14.1929,103045,122771
14.1929,103075,122837
14.2051,103058,122880
14.2097,103000,122863
14.2133,102734,122572
14.2141,102350,122091
14.2196,101760,121173
14.2232,100523,118834
14.2232,99441,116449
14.2308,98697,114574
14.2318,98006,112944
14.2354,97312,111121
14.2389,96871,109186
14.2434,96350,107447
14.2453,95952,106291
14.2463,95574,105416
14.2483,95297,104962
14.2532,95053,104619
14.2567,94845,104269
14.6606,94620,103879
14.6606,94422,103530
14.6606,94251,103216
14.6606,94072,102765
14.6606,93614,101639
14.6765,93343,100743
14.689,93111,99907
14.6948,92749,98792
14.6998,92587,97315
14.7065,92578,95685
14.7065,91800,93309
14.7137,89705,90013
14.7178,86617,86111
14.7206,82048,80956
14.7259,76725,75225
14.729,71872,70062
14.729,67586,65639
14.7345,64331,62186
14.7364,62209,59894
14.7374,61345,58934
14.7394,61555,59087
14.7418,62630,60105
14.7462,65219,62593
14.7482,69668,66989
14.7482,75646,73100
15.1602,81365,79246
15.1602,85468,84247
15.1602,87057,86949
15.1602,87210,87801
15.1679,87505,89093
15.1701,88102,91364
15.1722,88830,94088
15.1733,89869,97394
15.1743,91489,101470
15.1779,93260,105533
15.1802,94905,108946
15.1813,96343,111759
15.1823,97403,113732
15.1861,98059,114926
15.188,98546,115820
15.2015,98907,116436
15.2066,99126,116841
15.22,99295,117207
15.22,99440,117532
15.229,99460,117658
15.2328,99348,117597
15.2342,99126,117357
15.2423,98680,116671
15.2433,98031,115475
15.2453,96723,112690
15.6592,95736,109932
15.6689,95082,107602
15.6689,94348,105452
15.6776,93571,103112
15.6848,92901,101292
15.6894,92318,99732
15.6928,91627,97930
15.6978,91258,95886
15.6999,90850,94105
15.7033,89828,91859
15.7043,88914,90087
15.7053,87683,88268
15.708,85720,85575
15.7101,83863,83252
15.7134,81545,80499
15.7179,78734,77250
15.7206,75663,73882
15.721,72919,70853
15.7221,70788,68571
15.7221,69779,67424
15.7232,70080,67620
15.7232,71059,68574
15.7242,73084,70579
15.7242,76307,73988
15.7242,79279,77215
16.1699,81620,79940
16.1735,83552,82494
16.1735,85419,85425
16.1735,86719,88668
16.1832,88695,94660
16.1859,93236,104741
16.1958,100572,117787
16.1998,106232,126826
16.2068,109487,131853
16.2133,111296,134501
16.2148,112428,136299
16.2148,113087,137562
16.2148,113565,138463
16.2227,113870,139157
16.2248,114011,139545
16.2292,114130,139794
16.2312,114203,140094
16.2312,113579,139506
16.2322,111857,137513
16.2322,109386,133840
16.2332,106520,128846
16.2332,103670,122986
16.2332,102163,117885
16.2345,101536,114330
16.2345,100162,109601
16.6732,98596,105587
16.6772,97271,102652
16.6772,96187,100556
16.683,95494,99538
16.6876,95066,99180
16.6936,94698,99107
16.6947,94314,98627
16.6998,93648,97048
16.7035,93280,95459
16.7045,91856,92470
16.7067,87158,86351
16.708,79117,77535
16.7091,69985,68019
16.7111,63310,60805
16.7145,60712,58031
16.7145,58980,56189
16.7195,59165,56228
16.7219,60362,57331
16.7219,63454,60188
16.7229,70830,67592
16.7229,80566,78271
16.7229,85745,86976
16.7239,84341,89720
16.7239,84375,93103
16.7239,92521,107865
17.1665,103429,124184
17.1665,109388,132650
17.1665,111093,134821
17.1665,111600,134397
17.175,111416,133461
17.1881,111121,132599
17.1931,111196,132533
17.1981,111418,132772
17.1995,111659,132519
17.2073,110050,130283
17.2127,104495,122813
17.2156,101088,111728
17.2176,96663,102839
17.2254,82001,88667
17.2286,78595,83690
17.232,87225,95870
17.234,88739,94803
17.236,92959,96254
17.238,94796,96518
17.241,95594,96403
17.244,96150,96357
17.246,97339,96484
17.247,97790,95958
17.247,98239,96355
17.248,98237,97642
17.6685,94661,97403
17.6734,92776,101411
17.6793,100605,112275
17.6813,102954,116341
17.6849,106211,122853
17.6878,108454,127660
17.6908,109776,130604
17.6918,110678,132668
17.7023,111378,134187
17.7033,111881,135440
17.706,112302,136408
17.7197,112630,137232
17.7265,112902,137863
17.7338,113147,138414
17.7358,113337,138794
17.7439,113421,139058
17.7469,113457,139220
17.7488,113520,139283
17.7528,113498,139269
17.7538,113398,139073
17.7548,113262,138790
17.7573,113024,138241
17.7583,112666,137354
17.764,112204,136345
17.766,111833,135432
18.1634,111512,134680
18.1674,111359,134205
18.1674,111190,133929
18.1674,111130,133804
18.1742,111050,133701
18.1755,111041,133612
18.1776,110975,133549
18.1808,110968,133523
18.1818,110924,133375
18.1838,110797,133194
18.1995,110640,132985
18.2107,110537,132669
18.215,110435,132392
18.2195,110274,132080
18.2195,110195,131855
18.2281,110131,131725
18.2323,110121,131644
18.2423,110077,131568
18.2513,110057,131550
18.2561,110047,131433
18.2583,109967,131325
18.2674,109883,131077
18.2694,109719,130724
18.2751,109503,130303
18.2788,109237,129775
18.6675,108961,129201
18.6675,108722,128668
18.6675,108538,128237
18.6675,108394,127896
18.6761,108315,127706
18.6781,108261,127593
18.6797,108209,127484
18.6808,108165,127367
18.684,108117,127273
18.699,108069,127143
18.7068,108009,127033
18.739,107957,126964
18.7663,107929,126887
18.7775,107864,126806
18.7824,107819,126723
18.7936,107754,126607
18.7999,107600,126301
18.8002,107353,125738
18.8031,107053,125085
18.8064,106829,124550
18.8087,106653,124145
18.8101,106546,123881
18.8101,106477,123747
18.817,106469,123705
18.8203,106458,123690
19.175,106453,123680
19.177,106445,123694
19.1846,106421,123685
19.1882,106408,123646
19.1901,106380,123590
19.1932,106339,123501
19.2045,106292,123428
19.2071,106269,123386
19.2205,106240,123321
19.2275,106247,123335
19.2323,106262,123337
19.2343,106272,123388
19.2405,106316,123475
19.2436,106367,123600
19.2446,106392,123658
19.2492,106414,123729
19.2513,106415,123782
19.2552,106431,123827
19.2567,106429,123861
19.2567,106394,123898
19.2577,106445,123936
19.2577,106473,124007
19.2587,106521,124081
19.2587,106551,124166
19.2597,106620,124285
19.6566,106680,124411
19.6698,106749,124570
19.6718,106834,124758
19.6874,106899,124944
19.6924,106988,125089
19.7012,107042,125217
19.7043,107129,125367
19.7113,107190,125567
19.714,107291,125775
19.714,107376,125952
19.7184,107416,126092
19.7306,107351,125996
19.7415,107202,125667
19.7446,107015,125270
19.7486,106874,124956
19.756,106797,124803
19.756,106814,124796
19.7621,106901,124934
19.7633,106958,125069
19.7643,107044,125228
19.7653,107086,125388
19.7663,107179,125573
19.7693,107261,125772
19.7733,107323,125937
19.7764,107327,125985
20.1716,107375,126001
20.1716,107340,126005
20.1716,107410,126019
20.1884,107392,126076
20.1987,107422,126166
20.2036,107499,126291
20.2101,107535,126441
20.2136,107599,126560
20.2216,107710,126709
20.2275,107735,126877
20.2325,107790,127014
20.2354,107833,127114
20.2374,107837,127193
20.2391,107888,127256
20.2421,107933,127289
20.2482,107918,127338
20.2504,107942,127339
20.2504,107972,127370
20.2513,107960,127410
20.2513,107965,127430
20.2513,107960,127420
20.2523,107976,127439
20.2523,107957,127465
20.2533,107978,127500
20.2533,107983,127520
20.6732,107995,127599
20.6732,108015,127647
20.6834,108050,127673
20.6863,108063,127757
20.6939,108019,127679
20.6994,107870,127361
20.7013,107641,126882
20.7152,107462,126383
20.7205,107310,126015
20.7249,107213,125797
20.7279,107197,125696
20.7325,107181,125700
20.7354,107188,125735
20.7421,107200,125757
20.745,107205,125800
20.7459,107231,125838
20.7492,107237,125856
20.7517,107202,125799
20.7537,107168,125733
20.7557,107137,125656
20.7573,107129,125580
20.7632,107085,125547
20.7643,107078,125509
20.7653,107090,125520
20.7653,107125,125607
21.1681,107162,125746
21.1737,107230,125891
21.1758,107274,126012
21.1878,107323,126122
21.1926,107346,126185
21.2018,107367,126266
21.2065,107402,126353
21.2125,107415,126372
21.2203,107431,126435
21.2203,107466,126501
21.2334,107498,126547
21.2413,107509,126616
21.2413,107525,126636
21.2513,107542,126618
21.2523,107526,126578
21.2551,107522,126546
21.2586,107508,126554
21.2626,107531,126624
21.2653,107571,126735
21.2683,107618,126888
21.2711,107663,127004
21.2961,107691,127102
21.2961,107663,127021
21.3173,107472,126606
21.3376,107204,125999
21.6597,106989,125458
21.6753,106857,125057
21.6753,106772,124861
21.7056,106756,124796
21.7116,106739,124790
21.7254,106759,124823
21.7323,106734,124822
21.7385,106735,124801
21.7423,106733,124788
21.7483,106697,124761
21.7513,106685,124701
21.7513,106632,124582
21.7513,106587,124496
21.7523,106553,124422
21.7523,106503,124414
21.7533,106533,124411
21.7533,106548,124412
21.7543,106572,124457
21.7543,106581,124479
21.7552,106602,124513
21.7552,106588,124528
21.7562,106609,124554
21.7619,106611,124568
21.7619,106669,124609
21.7639,106655,124625
22.1685,106677,124672
22.1842,106716,124714
22.1899,106700,124750
22.1938,106770,124771
22.1958,106725,124781
22.1986,106728,124786
22.2024,106756,124783
22.2044,106765,124827
22.2076,106777,124875
22.2147,106820,124930
22.2202,106847,124978
22.2308,106883,125014
22.2365,106836,125084
22.2421,106865,125061
22.249,106840,125057
22.2514,106726,124755
22.2557,106466,124279
22.2605,106247,123767
22.263,106080,123360
22.2689,105991,123096
22.2703,105977,123002
22.2713,105945,122966
22.2723,105964,123049
22.2733,105995,123073
22.2764,106009,123114
22.6699,105991,123135
22.6699,105994,123141
22.6877,106024,123165
22.6947,105995,123146
22.6967,105978,123094
22.7017,105963,123080
22.7042,105969,123070
22.7056,106029,123120
22.709,106027,123183
22.7106,106087,123258
22.7155,106152,123393
22.7236,106193,123540
22.7246,106250,123658
22.7256,106270,123710
22.7256,106273,123698
22.7266,106270,123699
22.7266,106246,123682
22.7276,106219,123596
22.7283,106181,123496
22.7283,106140,123394
22.7283,106105,123331
22.7307,106103,123342
22.7307,106133,123351
22.7307,106138,123398
22.7317,106148,123427
23.1754,106158,123463
23.1837,106197,123494
23.1868,106212,123546
23.1947,106221,123576
23.1965,106245,123629
23.2005,106258,123695
23.2058,106257,123732
23.2101,106222,123651
23.2101,106067,123315
23.2134,105819,122786
23.2184,105632,122324
23.2246,105489,122004
23.2246,105472,121896
23.2256,105478,121890
23.2264,105511,121968
23.2268,105550,122057
23.2268,105589,122143
23.2268,105610,122211
23.2268,105650,122285
23.2268,105690,122367
23.2268,105693,122392
23.2268,105668,122402
23.231,105682,122422
23.231,105700,122458
23.231,105725,122499
23.677,105752,122600
23.678,105826,122713
23.678,105870,122831
23.6834,105946,122981
23.6854,106008,123105
23.6866,106061,123238
23.6876,106112,123329
23.6886,106150,123403
23.6933,106182,123471
23.6974,106184,123538
23.6986,106216,123581
23.6986,106223,123621
23.7015,106229,123685
23.7034,106266,123751
23.7034,106285,123796
23.7044,106320,123860
23.706,106370,123939
23.7082,106416,124031
23.7096,106450,124084
23.7116,106493,124161
23.7127,106509,124234
23.7171,106548,124340
23.7181,106574,124391
23.7201,106613,124442
23.7201,106609,124453
24.1751,106543,124316
24.1771,106362,123894
24.1791,106106,123359
24.1811,105940,122905
24.1841,105814,122641
24.1855,105776,122565
24.1875,105799,122575
24.1894,105814,122647
24.2059,105842,122693
24.2185,105831,122768
24.2236,105860,122810
24.2273,105893,122922
24.2338,105903,122962
24.2354,105928,122948
24.2458,105889,122913
24.2488,105878,122833
24.2582,105863,122820
24.2621,105864,122809
24.2621,105869,122829
24.2717,105907,122879
24.2758,105942,122969
24.2758,105974,123028
24.2783,106015,123152
24.2803,106023,123195
24.2823,106065,123242
24.6733,106088,123288
24.6733,106103,123351
24.6925,106106,123387
24.699,106110,123414
24.7058,106163,123417
24.7151,106120,123440
24.7191,106168,123470
24.7198,106151,123481
24.7385,106174,123515
24.7403,106236,123552
24.744,106223,123620
24.7492,106255,123661
24.7522,106325,123721
24.7581,106328,123758
24.7611,106336,123795
24.7625,106324,123818
24.7663,106198,123585
24.7683,105954,123125
24.7698,105749,122611
24.7708,105598,122182
24.7754,105515,121958
24.7789,105485,121933
24.7789,105531,122002
24.7789,105569,122078
24.7789,105584,122169
25.1759,105605,122225
25.1857,105638,122261
25.1857,105674,122336
25.1926,105710,122388
25.1943,105698,122398
25.1971,105701,122374
25.2001,105710,122346
25.2011,105702,122345
25.2082,105717,122369
25.2135,105736,122427
25.2176,105797,122506
25.2228,105826,122582
25.2254,105850,122686
25.2264,105895,122784
25.2295,105918,122897
25.234,105980,122960
25.2364,106002,123024
25.241,106015,123045
25.241,106047,123077
25.242,106050,123090
25.2429,106043,123105
25.2441,106040,123107
25.245,106047,123148
25.245,106057,123135
25.245,106053,123139
25.6718,106057,123181
25.6904,106057,123188
25.694,106074,123218
25.696,106097,123272
25.702,106129,123337
25.7064,106172,123414
25.7107,106201,123452
25.7216,106202,123474
25.7293,106182,123432
25.7347,106026,123072
25.7391,105770,122528
25.7421,105547,121989
25.7481,105417,121653
25.7509,105368,121500
25.7529,105376,121548
25.7559,105401,121592
25.7559,105407,121617
25.7559,105425,121647
25.7559,105415,121648
25.7624,105421,121685
25.7666,105467,121757
25.7693,105474,121779
25.7693,105491,121785
25.7693,105487,121756
25.7721,105503,121730
26.1754,105501,121714
26.193,105499,121729
26.1987,105497,121782
26.203,105521,121847
26.2073,105536,121913
26.2159,105569,121972
26.2204,105610,122055
26.2244,105652,122112
26.2368,105671,122182
26.2417,105693,122194
26.2468,105700,122242
26.2491,105715,122303
26.2556,105712,122341
26.2592,105719,122374
26.266,105750,122410
26.268,105766,122427
26.2688,105783,122462
26.2688,105817,122472
26.2719,105819,122513
26.2739,105856,122572
26.2777,105873,122631
26.281,105872,122653
26.282,105899,122688
26.282,105931,122739
26.2831,105953,122806
26.689,105970,122853
26.6917,106012,122922
26.7014,106019,122914
26.7055,105929,122745
26.7095,105709,122228
26.7141,105458,121695
26.7209,105307,121314
26.7329,105229,121110
26.7431,105223,121107
26.7487,105262,121184
26.7542,105317,121277
26.7562,105365,121367
26.7643,105342,121339
26.7653,105347,121409
26.7663,105408,121492
26.7697,105468,121573
26.7718,105463,121638
26.7728,105468,121709
26.7738,105489,121734
26.7785,105514,121719
26.7805,105531,121803
26.7833,105586,121900
26.7833,105621,121960
26.7833,105675,122047
26.7861,105726,122214
27.179,105798,122344
27.1811,105832,122440
27.1811,105848,122556
27.1811,105881,122585
27.2046,105900,122627
27.2098,105948,122701
27.2144,105989,122779
27.2222,106034,122826
27.2252,106071,122928
27.2279,106095,123017
27.2351,106125,123053
27.2482,106183,123151
27.2539,106199,123249
27.2549,106255,123292
27.262,106289,123425
27.265,106333,123481
27.2689,106349,123565
27.2715,106377,123660
27.2745,106416,123751
27.2755,106458,123837
27.2765,106487,123912
27.2816,106526,124004
27.2826,106556,124053
27.2848,106508,123947
27.2858,106342,123578
27.6817,106105,123010
27.6817,105899,122537
27.7004,105786,122242
27.7055,105755,122127
27.7109,105784,122141
27.7138,105824,122239
27.7138,105850,122308
27.7273,105867,122349
27.7354,105886,122378
27.7411,105915,122443
27.7632,105946,122507
27.7853,105958,122526
27.7853,105960,122487
27.7873,105938,122468
27.7873,105921,122412
27.7893,105920,122387
27.7996,105940,122411
27.7996,105978,122512
27.8033,106012,122595
27.8033,106044,122697
27.8033,106078,122797
27.8045,106104,122868
27.8045,106136,122918
27.8055,106169,122998
27.8055,106174,123039
28.1805,106198,123091
28.1805,106201,123114
28.1805,106236,123162
28.1948,106246,123216
28.1968,106266,123241
28.1993,106281,123275
28.208,106322,123320
28.2101,106340,123380
28.2133,106365,123418
28.2133,106366,123474
28.2158,106410,123521
28.2168,106424,123579
28.2188,106447,123671
28.2224,106466,123729
28.2254,106493,123799
28.2283,106483,123827
28.2313,106382,123596
28.2323,106181,123087
28.2323,105939,122504
28.2333,105781,122092
28.2333,105696,121887
28.2343,105695,121848
28.2343,105731,121897
28.2353,105785,121976
28.2365,105811,122035
28.685,105833,122071
28.685,105854,122120
28.685,105911,122206
28.6881,105923,122249
28.692,105929,122269
28.694,105917,122274
28.696,105919,122259
28.698,105906,122239
28.7,105919,122265
28.7013,105927,122285
28.7033,105955,122355
28.7149,105985,122467
28.7264,106027,122548
28.732,106067,122641
28.7351,106084,122703
28.7447,106103,122762
28.7472,106118,122809
28.748,106132,122832
28.7527,106174,122892
28.7619,106203,122911
28.7707,106214,122969
28.7764,106222,122990
28.7817,106279,123023
28.7888,106290,123093
28.7922,106304,123122
29.1828,106324,123168
29.1867,106367,123227
29.1867,106394,123314
29.194,106380,123338
29.1963,106434,123396
29.1983,106464,123439
29.2057,106499,123479
29.21,106520,123572
29.211,106557,123626
29.2124,106572,123626
29.2124,106456,123478
29.2134,106283,123003
29.2134,105981,122384
29.2134,105828,121932
29.2134,105731,121684
29.2134,105684,121616
29.2134,105758,121690
29.2181,105780,121803
29.2201,105837,121828
29.2225,105796,121883
29.2239,105795,121891
29.226,105847,121943
29.2279,105849,122014
29.2295,105873,122024
29.2295,105862,122047
29.6732,105848,122029
29.6732,105838,122042
29.689,105851,121979
29.691,105856,122011
29.6931,105891,122061
29.6956,105957,122172
29.6978,105992,122275
29.7133,106034,122336
29.7133,106055,122413
29.7224,106061,122465
29.7272,106095,122505
29.7335,106121,122559
29.7381,106127,122587
29.7422,106122,122631
29.7472,106129,122648
29.7523,106162,122687
29.7543,106197,122742
29.7661,106208,122783
29.7695,106236,122838
29.778,106249,122884
29.7791,106280,122933
29.7827,106277,122976
29.7881,106317,123040
29.7916,106334,123072
29.7916,106349,123115
30.1875,106364,123153
30.1875,106361,123191
30.1875,106408,123257
30.1875,106427,123308
30.1875,106437,123347
30.1956,106418,123258
30.1976,106246,122899
30.1997,105973,122331
30.2019,105765,121837
30.2039,105651,121492
30.2059,105590,121380
30.2075,105621,121422
30.2101,105674,121496
30.2122,105701,121556
30.2141,105720,121617
30.2157,105737,121667
30.2341,105769,121734
30.2461,105807,121817
30.2505,105817,121870
30.254,105807,121889
30.2585,105818,121920
30.2605,105811,121916
30.2626,105814,121939
30.2626,105840,121973
30.2674,105851,122022
30.6906,105931,122126
30.6906,105995,122229
30.6906,106034,122360
30.6906,106089,122465
30.7054,106096,122554
30.7064,106115,122615
30.7119,106147,122674
30.7139,106164,122720
30.7228,106174,122773
30.7262,106199,122815
30.7277,106257,122901
30.7311,106264,122972
30.735,106276,123057
30.735,106293,123136
30.7395,106341,123212
30.7395,106374,123271
30.7405,106418,123328
30.7405,106439,123412
30.7415,106476,123493
30.7423,106505,123569
30.7423,106575,123646
30.7434,106604,123733
30.7434,106632,123847
30.7434,106681,123916
30.7444,106692,123987
31.1884,106705,123977
31.1884,106635,123761
31.1884,106379,123219
31.1884,106116,122649
31.1991,105952,122199
31.2014,105818,121952
31.2024,105825,121882
31.2024,105848,121931
31.2064,105871,122016
31.2091,105925,122108
31.2321,105955,122141
31.2342,106000,122196
31.2575,106028,122306
31.2772,106026,122318
31.2858,106008,122347
31.2982,106025,122287
31.3066,105967,122239
31.3087,105988,122252
31.3216,106044,122231
31.3305,106010,122324
31.336,106051,122367
31.3404,106088,122460
31.3456,106125,122607
31.3492,106138,122700
31.3523,106253,122777
31.6913,106241,122824
31.7037,106215,122908
31.7071,106268,122941
31.7143,106260,122943
31.7193,106256,122918
31.7278,106281,122991
31.7401,106296,123041
31.7464,106341,123016
31.7483,106356,123055
31.7556,106399,123080
31.757,106409,123124
31.7617,106421,123171
31.7652,106444,123163
31.7662,106448,123268
31.7693,106494,123299
31.7693,106517,123294
31.7693,106526,123386
31.7693,106538,123409
31.7762,106552,123473
31.7792,106584,123517
31.7812,106513,123422
31.7853,106300,122984
31.7863,106060,122442
31.7863,105925,122129
31.7873,105859,121956
32.1887,105876,121951
32.2048,105936,122075
32.2084,105990,122186
32.2123,106046,122270
32.2133,106065,122308
32.2239,106080,122375
32.2249,106138,122446
32.227,106142,122508
32.2412,106157,122518
32.2491,106143,122489
32.2521,106122,122485
32.2563,106121,122452
32.2563,106132,122436
32.2601,106133,122435
32.2648,106148,122429
32.2674,106161,122466
32.2708,106193,122464
32.2718,106227,122525
32.2758,106247,122568
32.2778,106257,122588
32.2788,106257,122638
32.2798,106278,122671
32.2838,106301,122735
32.2868,106310,122763
32.2898,106338,122787
32.6891,106336,122817
32.6911,106361,122869
32.7054,106350,122905
32.7153,106398,122969
32.7198,106431,123028
32.7222,106454,123092
32.7273,106470,123139
32.7303,106510,123189
32.7346,106513,123236
32.7481,106540,123265
32.7481,106564,123317
32.7481,106577,123342
32.756,106592,123379
32.7598,106620,123437
32.7632,106624,123521
32.7659,106634,123537
32.7696,106593,123476
32.7707,106418,123089
32.7727,106123,122508
32.7757,105943,121992
32.7777,105810,121683
32.7789,105812,121566
32.78,105845,121608
32.783,105889,121740
32.7848,105939,121874
33.1821,105962,121962
33.1821,105998,122009
33.198,106031,122080
33.206,106067,122149
33.2145,106086,122172
33.2221,106076,122149
33.2263,106081,122137
33.2303,106071,122139
33.2366,106075,122175
33.243,106091,122199
33.2474,106117,122265
33.254,106154,122330
33.2587,106198,122450
33.2617,106234,122569
33.2636,106290,122689
33.2669,106298,122794
33.2719,106388,122873
33.2759,106367,122940
33.2828,106373,122983
33.2828,106427,123030
33.2828,106436,123079
33.2857,106488,123167
33.2857,106501,123252
33.2868,106568,123321
33.2878,106582,123386
33.6928,106644,123464
33.7054,106617,123529
33.7105,106685,123607
33.7152,106690,123664
33.7152,106715,123728
33.7252,106772,123801
33.7262,106807,123937
33.7299,106825,124010
33.7317,106871,124122
33.736,106878,124191
33.737,106942,124282
33.739,106941,124261
33.741,106859,124040
33.7431,106571,123535
33.7441,106365,122990
33.7495,106196,122598
33.7515,106136,122435
33.7525,106124,122377
33.7525,106185,122439
33.7525,106223,122558
33.7535,106254,122656
33.754,106287,122737
33.754,106348,122830
33.755,106366,122939
33.7555,106402,122989
34.1833,106353,122978
34.1833,106350,122887
34.1833,106303,122846
34.1989,106288,122788
34.2021,106302,122829
34.2036,106322,122861
34.2058,106373,122947
34.2067,106407,123076
34.2098,106457,123185
34.2251,106513,123280
34.2272,106532,123386
34.2569,106573,123400
34.2827,106590,123452
34.2909,106588,123469
34.2949,106597,123497
34.2966,106605,123523
34.3108,106612,123514
34.3136,106620,123538
34.3164,106612,123562
34.3216,106648,123589
34.3246,106658,123621
34.3246,106668,123682
34.3246,106699,123721
34.3276,106713,123751
34.3276,106733,123807
34.6908,106768,123861
34.6908,106797,123915
34.6908,106799,123963
34.6908,106828,124003
34.702,106798,123955
34.7039,106615,123588
34.7062,106355,123019
34.7164,106127,122536
34.7211,105996,122215
34.7312,105976,122094
34.7355,106002,122127
34.7385,106041,122241
34.7428,106098,122380
34.7483,106131,122450
34.751,106175,122525
34.7601,106224,122592
34.7687,106253,122674
34.7731,106251,122674
34.776,106251,122656
34.7833,106225,122618
34.7833,106212,122596
34.7888,106205,122588
34.7926,106224,122615
34.7926,106241,122683
34.7951,106291,122785
35.1878,106351,122907
35.2034,106372,123026
35.2097,106429,123126
35.2137,106475,123210
35.2182,106487,123260
35.2262,106524,123323
35.2312,106543,123364
35.2332,106563,123397
35.2352,106592,123420
35.248,106604,123442
35.2561,106627,123496
35.2621,106633,123530
35.2621,106629,123573
35.2621,106639,123586
35.2723,106657,123632
35.2756,106678,123692
35.2756,106713,123748
35.28,106746,123823
35.281,106744,123862
35.283,106766,123919
35.2845,106778,123971
35.2855,106827,124041
35.2896,106837,124076
35.2925,106789,124004
35.2935,106604,123613
35.704,106354,123041
35.7096,106149,122526
35.7157,105998,122211
35.7223,105970,122089
35.7271,105974,122134
35.7306,106036,122216
35.7401,106081,122297
35.7423,106115,122351
35.7471,106124,122398
35.7479,106179,122440
35.7499,106180,122519
35.7519,106197,122532
35.7553,106202,122539
35.7594,106228,122501
35.7604,106172,122471
35.7604,106168,122434
35.7604,106204,122463
35.7614,106198,122525
35.7614,106235,122639
35.7624,106289,122671
35.7624,106319,122766
35.7624,106353,122866
35.7624,106414,122988
35.7624,106434,122959
35.7656,106395,123002
36.1966,106456,123085
36.1966,106460,123104
36.2079,106473,123149
36.2111,106490,123154
36.2158,106481,123199
36.2199,106519,123258
36.2274,106577,123298
36.2274,106566,123384
36.2331,106598,123460
36.2349,106664,123522
36.2359,106641,123572
36.2389,106688,123644
36.2415,106741,123704
36.2457,106778,123759
36.2467,106788,123846
36.2467,106763,123901
36.2477,106806,123957
36.2477,106832,123968
36.2487,106803,123947
36.2493,106727,123716
36.2499,106475,123237
36.2504,106262,122696
36.2504,106120,122341
36.2514,106057,122215
36.2514,106104,122193
36.6935,106124,122324
36.7095,106173,122430
36.7202,106217,122498
36.7262,106243,122543
36.7304,106293,122619
36.7361,106326,122781
36.7473,106354,122856
36.7511,106348,122860
36.7548,106341,122830
36.7548,106340,122830
36.7638,106338,122822
36.7686,106363,122859
36.7722,106392,122922
36.7732,106433,123043
36.7761,106483,123166
36.7789,106547,123265
36.7799,106574,123380
36.7809,106644,123470
36.7829,106675,123538
36.7845,106696,123599
36.7895,106696,123639
36.7918,106734,123691
36.7928,106748,123741
36.7928,106759,123809
36.7928,106787,123833
37.1961,106797,123886
37.1961,106816,123940
37.1961,106847,124002
37.1961,106875,124039
37.2104,106902,124090
37.2152,106918,124145
37.2181,106948,124201
37.2216,106971,124247
37.2227,107007,124283
37.2251,107020,124356
37.2271,107057,124434
37.231,107072,124471
37.2358,107050,124449
37.2378,106932,124165
37.2389,106685,123672
37.2389,106471,123170
37.2398,106328,122845
37.2398,106288,122700
37.241,106308,122726
37.241,106362,122837
37.242,106419,122950
37.243,106474,123094
37.2434,106485,123148
37.2445,106539,123250
37.2455,106577,123315
37.7008,106585,123340
37.7008,106578,123286
37.7008,106558,123269
37.7085,106538,123218
37.7101,106529,123195
37.7247,106540,123194
37.7264,106593,123275
37.7341,106622,123373
37.7619,106645,123464
37.7694,106659,123588
37.7912,106686,123674
37.7932,106737,123759
37.7932,106763,123812
37.7932,106788,123858
37.7982,106817,123888
37.8191,106835,123937
37.8241,106854,123949
37.8325,106853,123958
37.8372,106890,124004
37.8416,106894,124030
37.8426,106924,124045
37.8515,106913,124083
37.8584,106939,124154
37.8584,106964,124200
37.8698,107008,124228
38.2048,107010,124285
38.2048,107029,124316
38.211,107051,124387
38.2175,107100,124455
38.222,107099,124502
38.2268,107068,124472
38.2391,106968,124209
38.2418,106697,123685
38.2548,106466,123152
38.2548,106320,122780
38.2654,106250,122625
38.2674,106260,122589
38.2687,106310,122663
38.2722,106341,122773
38.2732,106355,122834
38.2742,106347,122865
38.2765,106388,122938
38.2794,106408,122982
38.2834,106437,123020
38.2834,106423,122973
38.2834,106419,122958
38.2834,106412,122923
38.2876,106405,122910
38.2876,106400,122961
38.2886,106437,123021
38.7018,106467,123037
38.7018,106480,123121
38.7018,106550,123234
38.7104,106590,123325
38.7139,106603,123361
38.715,106621,123416
38.7228,106648,123456
38.7238,106660,123493
38.7238,106663,123501
38.7248,106654,123486
38.7248,106695,123544
38.7261,106731,123559
38.7261,106698,123636
38.7271,106748,123642
38.7271,106755,123720
38.7303,106766,123718
38.7324,106775,123833
38.7343,106836,123812
38.7353,106807,123871
38.7385,106850,123890
38.7405,106859,123948
38.7425,106898,123990
38.7433,106908,124042
38.7629,106933,124074
38.7678,106904,124037
39.1998,106735,123718
39.2138,106484,123184
39.2201,106265,122712
39.2294,106131,122371
39.2324,106073,122227
39.2374,106102,122230
39.243,106141,122385
39.2479,106176,122429
39.2479,106215,122511
39.2617,106231,122552
39.2668,106263,122603
39.2715,106299,122647
39.2757,106299,122687
39.2757,106296,122676
39.2844,106301,122661
39.2854,106300,122645
39.2885,106286,122645
39.2907,106294,122652
39.2917,106322,122701
39.2927,106349,122763
39.2947,106403,122878
39.2986,106434,122975
39.3016,106458,123069
39.3036,106485,123104
39.3036,106513,123184
39.7063,106534,123242
39.709,106567,123265
39.7128,106589,123297
39.7167,106596,123330
39.7243,106606,123366
39.7262,106644,123414
39.7315,106657,123451
39.7346,106673,123535
39.7367,106702,123587
39.7387,106731,123656
39.7438,106756,123734
39.7458,106771,123816
39.7485,106802,123874
39.7485,106853,123942
39.7485,106861,124029
39.7509,106916,124116
39.7509,106952,124214
39.7509,106991,124301
39.7519,106985,124314
39.7519,106875,124084
39.7519,106660,123571
39.7529,106437,123083
39.7529,106285,122741
39.7529,106242,122583
39.7539,106259,122596
40.2099,106309,122688
40.213,106359,122807
40.2155,106378,122878
40.2174,106425,122954
40.2218,106464,123064
40.2249,106501,123173
40.2269,106533,123243
40.2318,106519,123266
40.2349,106532,123284
40.2474,106540,123310
40.2569,106551,123297
40.2619,106577,123358
40.2674,106597,123441
40.2692,106673,123536
40.2692,106723,123650
40.2781,106775,123762
40.2791,106805,123840
40.2801,106854,123925
40.2823,106858,123979
40.2823,106880,124029
40.2877,106873,124068
40.2913,106888,124090
40.2924,106885,124133
40.2924,106905,124167
40.2934,106923,124202
40.7043,106945,124250
40.7043,106989,124306
40.7206,106982,124352
40.7249,107000,124407
40.7327,107016,124475
40.7345,107030,124538
40.7414,107069,124566
40.7439,107090,124614
40.7439,107131,124676
40.7494,107159,124708
40.7514,107161,124739
40.7524,107157,124697
40.7538,106977,124377
40.7553,106750,123888
40.76,106539,123397
40.7636,106434,123101
40.7636,106411,122975
40.7636,106401,122989
40.7636,106466,123113
40.7653,106521,123183
40.7653,106552,123271
40.7664,106593,123349
40.7664,106613,123457
40.7664,106644,123535
40.7674,106659,123524
41.1981,106616,123496
41.1981,106631,123445
41.1981,106626,123435
41.1981,106622,123427
41.2116,106645,123464
41.2147,106668,123546
41.2327,106712,123633
41.244,106745,123727
41.2469,106811,123834
41.2484,106808,123917
41.2567,106844,123985
41.2587,106892,124063
41.2615,106877,124082
41.2671,106883,124107
41.2695,106914,124159
41.2706,106924,124218
41.2779,106955,124203
41.2823,106947,124250
41.2823,106990,124299
41.2893,106963,124317
41.2913,107008,124320
41.2913,107018,124400
41.2968,107039,124486
41.2989,107043,124565
41.3019,107080,124607
41.7018,107077,124663
41.7018,107162,124694
41.7148,107144,124732
41.7183,107047,124550
41.7214,106863,124085
41.7223,106626,123525
41.7253,106460,123084
41.7286,106370,122900
41.7296,106336,122795
41.7363,106366,122843
41.7399,106402,122904
41.7402,106427,122972
41.7457,106447,123010
41.7467,106482,123062
41.7486,106521,123143
41.7486,106538,123193
41.751,106519,123157
41.7553,106512,123150
41.7563,106500,123139
41.7608,106491,123116
41.7613,106505,123146
41.7613,106531,123221
41.7627,106568,123271
41.7637,106592,123355
41.7637,106648,123436
42.2049,106686,123544
42.2154,106723,123626
42.2205,106752,123666
42.2245,106765,123705
42.2269,106781,123746
42.235,106794,123769
42.2399,106815,123786
42.2417,106811,123781
42.2447,106825,123816
42.2457,106840,123870
42.2478,106857,123916
42.2493,106870,123993
42.2514,106909,124040
42.2524,106920,124109
42.2554,106940,124162
42.2554,106982,124204
42.2554,106989,124244
42.2554,107027,124295
42.2623,107074,124370
42.2623,107075,124383
42.2631,107021,124295
42.2631,106826,123865
42.2641,106548,123249
42.2652,106333,122731
42.2652,106203,122447
42.6986,106164,122327
42.6986,106175,122346
42.6986,106192,122406
42.7146,106223,122442
42.7177,106223,122430
42.7219,106203,122421
42.7246,106233,122447
42.7286,106261,122507
42.7385,106264,122521
42.7399,106264,122507
42.7529,106258,122483
42.7582,106234,122462
42.7641,106234,122435
42.7688,106252,122453
42.7739,106270,122483
42.779,106292,122550
42.781,106333,122626
42.783,106343,122667
42.7869,106366,122677
42.7889,106366,122727
42.7909,106360,122715
42.792,106347,122703
42.8003,106353,122719
42.8073,106350,122744
42.8089,106369,122782
43.208,106395,122806
43.208,106393,122840
43.208,106427,122883
43.2196,106475,122956
43.2217,106501,123009
43.2227,106526,123043
43.2297,106526,123052
43.2338,106537,123086
43.2375,106541,123138
43.2395,106549,123159
43.2415,106592,123189
43.2415,106607,123233
43.2444,106627,123230
43.2474,106601,123189
43.2498,106468,122943
43.2543,106188,122351
43.2553,105929,121783
43.2553,105754,121371
43.2561,105694,121208
43.2561,105701,121173
43.2572,105704,121214
43.2572,105739,121276
43.2572,105697,121241
43.2572,105704,121249
43.2572,105717,121267
43.7156,105727,121352
43.7176,105746,121420
43.7176,105769,121443
43.7282,105752,121454
43.7292,105760,121413
43.7322,105753,121387
43.7438,105751,121399
43.7514,105771,121448
43.7554,105822,121504
43.7614,105829,121585
43.7675,105876,121659
43.7702,105918,121754
43.7752,105939,121819
43.78,105967,121866
43.783,105942,121877
43.7838,105999,121933
43.7895,106023,121975
43.7913,105998,122027
43.797,106032,122026
43.8001,106062,122122
43.8011,106058,122164
43.8011,106099,122221
43.8011,106176,122246
43.8021,106177,122318
43.8021,106175,122383
44.2084,106209,122412
44.2084,106252,122478
44.2182,106258,122509
44.2277,106261,122576
44.2369,106317,122625
44.2419,106367,122724
44.2499,106360,122766
44.2529,106410,122810
44.2585,106441,122851
44.2677,106310,122634
44.2711,106048,122107
44.2758,105840,121614
44.2797,105690,121272
44.2836,105640,121133
44.3134,105648,121156
44.3188,105683,121202
44.3408,105696,121261
44.3591,105721,121319
44.3615,105740,121362
44.3679,105758,121435
44.3813,105817,121518
44.3996,105849,121605
44.4053,105852,121600
44.4135,105864,121603
44.4192,105840,121539
44.7146,105842,121536
44.7166,105859,121555
44.7166,105887,121604
44.727,105928,121679
44.7349,105964,121814
44.7379,106015,121915
44.7389,106065,121996
44.7435,106086,122082
44.7455,106131,122139
44.7477,106138,122217
44.7525,106185,122297
44.7574,106219,122380
44.7574,106240,122444
44.7626,106280,122518
44.7656,106299,122555
44.7656,106307,122587
44.769,106351,122647
44.7702,106382,122726
44.7722,106416,122782
44.7742,106454,122865
44.7769,106461,122929
44.7799,106491,122981
44.7819,106524,123044
44.7829,106549,123128
44.7836,106588,123235
45.2095,106638,123332
45.2187,106701,123451
45.2187,106740,123570
45.225,106759,123610
45.2286,106681,123488
45.2321,106493,123067
45.2341,106275,122560
45.2365,106135,122180
45.2439,106057,122007
45.2439,106057,121975
45.2477,106096,122059
45.2503,106145,122140
45.2513,106183,122256
45.2543,106219,122329
45.2555,106259,122394
45.2575,106297,122502
45.2595,106329,122569
45.2625,106318,122548
45.2625,106314,122506
45.2683,106274,122486
45.2693,106260,122445
45.2705,106247,122435
45.2705,106289,122489
45.2714,106317,122555
45.2714,106351,122645
45.7083,106391,122731
45.7083,106438,122785
45.7151,106464,122830
45.7171,106492,122864
45.7195,106507,122906
45.7219,106507,122914
45.724,106522,122952
45.7259,106533,122943
45.7281,106501,122955
45.7301,106505,122972
45.7321,106511,122987
45.7477,106534,123044
45.7577,106543,123082
45.7604,106570,123092
45.7644,106590,123142
45.7702,106594,123173
45.7722,106593,123216
45.7745,106624,123286
45.7753,106631,123361
45.7894,106675,123421
45.7894,106689,123453
45.8003,106687,123402
45.8023,106540,123140
45.8033,106308,122611
45.8121,106093,122127
46.2197,105959,121789
46.2287,105925,121666
46.2342,105915,121672
46.2362,105953,121725
46.2372,105987,121815
46.2392,106065,121895
46.2448,106087,121953
46.246,106087,122020
46.2501,106104,122093
46.2518,106142,122126
46.2528,106128,122146
46.2654,106131,122100
46.2681,106137,122103
46.2772,106127,122120
46.2826,106163,122179
46.2868,106176,122247
46.2888,106230,122324
46.2946,106259,122425
46.2986,106280,122505
46.3017,106354,122605
46.3057,106352,122693
46.3073,106395,122752
46.3097,106438,122789
46.3132,106419,122811
46.3178,106452,122894
46.699,106482,122991
46.7145,106511,122977
46.7207,106505,123066
46.7351,106573,123162
46.7438,106586,123208
46.7472,106669,123287
46.7513,106638,123370
46.7536,106686,123438
46.7567,106707,123489
46.7577,106700,123533
46.7692,106779,123620
46.7779,106786,123638
46.7833,106769,123679
46.7874,106779,123744
46.7939,106818,123791
46.7969,106876,123844
46.8046,106861,123869
46.8067,106733,123554
46.81,106457,122979
46.8114,106210,122370
46.8124,106054,121991
46.8154,105990,121811
46.8191,106000,121822
46.8226,106039,121896
46.8236,106089,121984
47.2113,106088,122025
47.2113,106123,122051
47.2207,106134,122113
47.2207,106180,122216
47.2262,106221,122290
47.2358,106230,122323
47.2416,106222,122321
47.2508,106209,122293
47.2558,106229,122350
47.2579,106221,122374
47.2646,106273,122424
47.2656,106287,122513
47.2704,106339,122603
47.2721,106384,122705
47.2741,106435,122785
47.2761,106474,122911
47.2777,106529,122970
47.279,106539,123015
47.281,106565,123061
47.2829,106587,123128
47.2864,106599,123144
47.2901,106599,123194
47.2912,106609,123217
47.2912,106626,123269
47.2912,106653,123346
47.7025,106669,123398
47.7184,106702,123446
47.7237,106719,123477
47.7276,106732,123491
47.7302,106722,123495
47.7312,106753,123523
47.7344,106777,123554
47.7385,106789,123585
47.7433,106799,123635
47.7453,106819,123685
47.7463,106828,123723
47.7463,106836,123765
47.7473,106861,123791
47.7473,106809,123687
47.7483,106605,123302
47.7483,106353,122736
47.7483,106164,122278
47.7508,106038,121990
47.7513,106017,121899
47.7534,106041,121948
47.7558,106103,122085
47.7578,106154,122185
47.7598,106189,122251
47.7618,106215,122286
47.7628,106243,122389
48.2232,106282,122460
48.2232,106317,122501
48.2344,106331,122532
48.2422,106331,122541
48.2432,106341,122562
48.2514,106339,122558
48.2534,106343,122602
48.2668,106356,122677
48.2754,106428,122759
48.2799,106448,122893
48.2843,106507,122962
48.2873,106543,123103
48.2945,106576,123146
48.2965,106611,123183
48.2973,106642,123228
48.3043,106654,123256
48.3084,106671,123287
48.3102,106661,123319
48.314,106689,123337
48.318,106694,123369
48.318,106724,123388
48.318,106736,123451
48.3222,106779,123514
48.3228,106813,123580
48.3228,106832,123632
48.7194,106858,123667
48.7226,106883,123730
48.7226,106902,123781
48.7267,106929,123875
48.7298,106954,123937
48.7318,106970,124001
48.739,106994,124053
48.7421,106999,124082
48.7549,107004,124076
48.7614,106898,123907
48.7692,106673,123424
48.7761,106422,122880
48.7815,106264,122446
48.7866,106165,122193
48.7886,106125,122131
48.7896,106200,122180
48.7896,106241,122275
48.7934,106286,122361
48.7972,106299,122422
48.8004,106346,122485
48.8014,106363,122556
48.8014,106331,122563
48.8024,106351,122530
48.8024,106332,122484
48.8024,106323,122478
49.218,106340,122457
49.218,106297,122465
49.2254,106336,122564
49.2376,106380,122612
49.2408,106435,122683
49.249,106492,122772
49.2537,106511,122881
49.2568,106519,122964
49.2608,106544,122994
49.2628,106552,123026
49.2658,106564,123087
49.2675,106633,123109
49.2704,106614,123133
49.2724,106664,123134
49.2743,106692,123163
49.2763,106705,123236
49.2773,106706,123330
49.2793,106747,123342
49.284,106767,123400
49.287,106798,123452
49.288,106796,123549
49.2885,106816,123544
49.2885,106827,123587
49.2895,106848,123643
49.2895,106881,123698
49.7209,106891,123735
49.725,106925,123819
49.7322,106925,123811
49.7421,106965,123894
49.7454,106938,123872
49.7503,106872,123700
49.7546,106633,123223
49.7592,106390,122641
49.7645,106198,122183
49.7685,106098,121913
49.7707,106102,121871
49.7745,106132,121942
49.7765,106181,122054
49.7829,106222,122126
49.7847,106235,122178
49.7867,106247,122218
49.7887,106273,122264
49.7905,106307,122334
49.7966,106327,122391
49.8032,106352,122428
49.8032,106366,122456
49.8048,106391,122500
49.8048,106400,122534
49.8059,106451,122606
49.8059,106481,122692
50.2187,106548,122808
50.2207,106581,122900
50.2227,106624,122992
50.2257,106666,123078
50.2284,106691,123153
50.2301,106677,123199
50.2427,106695,123207
50.2477,106694,123240
50.2579,106709,123268
50.2616,106723,123308
50.2616,106757,123330
50.272,106761,123355
50.2753,106781,123387
50.2753,106803,123420
50.2856,106839,123500
50.2893,106853,123552
50.2952,106888,123565
50.2992,106902,123611
50.3031,106940,123645
50.3064,106943,123685
50.3074,106960,123721
50.3094,106964,123763
50.3146,106993,123801
50.3156,106996,123864
50.3176,107053,123927
50.7156,107065,124008
50.7156,107062,124014
50.7156,106953,123803
50.7267,106714,123318
50.7344,106504,122801
50.7354,106364,122434
50.7398,106309,122275
50.7476,106326,122293
50.7588,106395,122379
50.7652,106449,122501
50.7683,106478,122580
50.7716,106504,122630
50.776,106508,122698
50.7782,106550,122766
50.7782,106570,122837
50.7831,106565,122842
50.7856,106555,122841
50.7866,106545,122816
50.7883,106549,122833
50.7893,106551,122858
50.7916,106582,122931
50.7946,106618,123030
50.7966,106669,123150
50.8004,106706,123257
50.8004,106757,123357
51.2277,106793,123436
51.2277,106834,123506
51.2277,106844,123532
51.2277,106868,123596
51.2413,106898,123643
51.2426,106901,123702
51.2511,106948,123752
51.2546,106972,123784
51.2601,107002,123840
51.2619,107039,123899
51.2634,107022,123939
51.2665,107076,124009
51.2675,107068,124060
51.2693,107103,124124
51.2723,107143,124191
51.2774,107178,124250
51.2794,107171,124302
51.2794,107195,124358
51.2794,107208,124429
51.2813,107299,124483
51.2813,107279,124550
51.2822,107301,124555
51.2822,107142,124281
51.2822,106921,123795
51.2836,106716,123283
51.7214,106560,122937
51.7234,106448,122732
51.7254,106512,122722
51.7284,106527,122825
51.7309,106569,122900
51.7322,106612,123019
51.7343,106664,123126
51.7349,106685,123189
51.7546,106712,123321
51.7576,106766,123294
51.7617,106720,123261
51.7637,106669,123247
51.7657,106678,123180
51.7703,106661,123148
51.7732,106672,123176
51.7762,106650,123175
51.8018,106677,123278
51.8135,106710,123311
51.8196,106776,123428
51.8342,106819,123485
51.8372,106837,123547
51.8372,106860,123604
51.8418,106874,123596
51.8438,106865,123634
51.8452,106883,123650
52.225,106909,123663
52.225,106920,123704
52.225,106934,123780
52.2287,106945,123743
52.2287,106935,123839
52.2327,106948,123819
52.2347,106943,123833
52.2377,106949,123844
52.2427,106949,123879
52.2447,106937,123826
52.2447,106928,123822
52.2447,106931,123800
52.2466,106938,123789
52.2475,106949,123810
52.25,106955,123842
52.252,106949,123806
52.254,106803,123503
52.255,106533,122957
52.2583,106314,122389
52.2603,106147,122027
52.2623,106065,121850
52.2633,106088,121860
52.2659,106134,121993
52.2822,106196,122086
52.2903,106223,122175
52.7228,106232,122232
52.7248,106265,122269
52.7358,106301,122362
52.7474,106321,122390
52.7474,106324,122370
52.7474,106302,122347
52.7585,106294,122303
52.7626,106280,122294
52.7662,106288,122262
52.7768,106294,122290
52.7808,106304,122323
52.786,106334,122389
52.7899,106334,122452
52.7953,106388,122513
52.7996,106426,122631
52.8036,106479,122761
52.807,106510,122858
52.812,106545,122929
52.8147,106546,122953
52.8168,106549,122950
52.8182,106581,122994
52.8203,106601,123017
52.8236,106596,123004
52.8273,106604,123022
52.8307,106619,123069
53.2274,106639,123080
53.2316,106666,123131
53.2316,106688,123194
53.2415,106736,123300
53.2425,106783,123383
53.2466,106782,123445
53.2503,106824,123527
53.2646,106851,123619
53.289,106883,123684
53.2991,106921,123767
53.3055,106869,123658
53.3204,106673,123247
53.3224,106436,122685
53.3283,106259,122222
53.3307,106178,121976
53.3327,106144,121912
53.3337,106161,121926
53.3337,106187,122000
53.3347,106272,122134
53.3347,106323,122253
53.3357,106344,122306
53.3357,106399,122364
53.3367,106400,122414
53.3372,106417,122442
53.3372,106415,122466
53.7199,106431,122496
53.7317,106467,122547
53.7317,106502,122627
53.7363,106500,122647
53.7486,106514,122690
53.7558,106539,122723
53.7569,106559,122770
53.7645,106584,122860
53.7711,106635,122957
53.7753,106669,123053
53.7795,106737,123096
53.7859,106724,123191
53.7892,106794,123286
53.7892,106801,123308
53.793,106831,123343
53.794,106825,123371
53.797,106884,123431
53.7985,106876,123490
53.8034,106884,123597
53.8063,106969,123697
53.8073,106988,123799
53.8073,106993,123866
53.8092,107079,123955
53.8102,107084,124026
53.8107,107121,124105
54.2157,107127,124176
54.2157,107177,124237
54.232,107192,124334
54.2393,107240,124367
54.2459,107179,124219
54.2519,106948,123752
54.2535,106718,123166
54.2546,106545,122762
54.2596,106447,122510
54.2617,106448,122510
54.2637,106513,122567
54.2682,106561,122713
54.2715,106621,122814
54.2725,106607,122836
54.2735,106648,122902
54.2735,106685,122965
54.2745,106737,123053
54.2745,106727,123049
54.2755,106721,123003
54.2755,106682,123038
54.2765,106682,122986
54.2775,106707,123036
54.2775,106738,123051
54.2785,106757,123157
54.2785,106805,123247
54.7328,106840,123332
54.7328,106876,123421
54.7383,106915,123455
54.7455,106933,123515
54.7475,106961,123551
54.7576,106971,123541
54.7606,106947,123553
54.7651,106969,123557
54.7674,106979,123586
54.7677,106983,123629
54.7717,107007,123649
54.7727,107006,123677
54.7802,107005,123692
54.7817,107038,123779
54.7817,107072,123848
54.7851,107114,123951
54.7851,107131,124020
54.7863,107169,124082
54.7863,107223,124169
54.7873,107240,124203
54.7873,107279,124288
54.7883,107320,124359
54.7887,107359,124457
54.7887,107318,124403
54.7899,107139,124028
55.2307,106894,123489
55.2307,106710,123051
55.2337,106599,122751
55.2337,106553,122637
55.2374,106565,122672
55.2386,106623,122731
55.2401,106642,122777
55.2421,106673,122886
55.245,106724,122970
55.2486,106757,123058
55.2486,106785,123107
55.2486,106767,123096
55.2524,106735,123021
55.2544,106714,122943
55.2564,106685,122870
55.2584,106692,122870
55.2598,106685,122877
55.2618,106702,122928
55.2642,106749,123041
55.2659,106800,123214
55.2679,106855,123366
55.2698,106896,123475
55.2725,106927,123563
55.2882,106944,123630
55.2971,106963,123660
55.7187,106969,123665
55.7344,106979,123665
55.7451,106993,123697
55.7513,107031,123747
55.7541,107030,123777
55.7588,107051,123809
55.7631,107031,123828
55.7671,107037,123839
55.7724,107046,123845
55.7796,107038,123852
55.7813,107011,123869
55.7849,107039,123843
55.7859,107026,123870
55.7869,107063,123940
55.7882,107077,123998
55.7901,107079,124054
55.7932,106978,123876
55.7973,106742,123374
55.8,106526,122852
55.8021,106371,122461
55.8031,106297,122251
55.8038,106297,122177
55.8048,106324,122184
55.8048,106350,122268
55.8059,106384,122359
56.2163,106413,122427
56.2163,106454,122527
56.2323,106506,122617
56.2347,106492,122620
56.2368,106501,122592
56.239,106474,122523
56.2399,106438,122473
56.243,106435,122455
56.2439,106428,122482
56.2684,106431,122541
56.2774,106516,122637
56.2818,106570,122712
56.2835,106619,122845
56.2846,106660,122978
56.2939,106713,123091
56.296,106697,123150
56.296,106716,123211
56.3001,106740,123230
56.3011,106786,123238
56.3147,106802,123248
56.3175,106788,123225
56.3252,106765,123243
56.3272,106774,123288
56.3328,106805,123356
56.3372,106813,123365
56.7274,106844,123393
56.7274,106830,123425
56.7357,106854,123501
56.7415,106889,123568
56.7485,106941,123626
56.7505,106946,123724
56.755,106984,123768
56.7573,107000,123910
56.7583,107024,123894
56.7603,106879,123704
56.7623,106653,123205
56.7873,106440,122695
56.8035,106272,122324
56.8259,106228,122137
56.8368,106227,122182
56.8407,106339,122268
56.8488,106396,122395
56.8541,106422,122536
56.8604,106455,122574
56.8647,106489,122599
56.8726,106525,122680
56.8791,106542,122720
56.8884,106525,122666
56.8884,106485,122581
56.8945,106439,122512
57.227,106412,122457
57.227,106419,122464
57.227,106433,122477
57.2366,106451,122547
57.2462,106465,122582
57.2467,106493,122627
57.2477,106532,122668
57.2482,106553,122736
57.2488,106581,122796
57.2488,106587,122819
57.2498,106610,122833
57.2498,106606,122838
57.2547,106614,122893
57.2567,106633,122928
57.2579,106654,122958
57.2604,106674,122965
57.2641,106668,123001
57.2641,106699,123066
57.2662,106714,123132
57.2681,106750,123188
57.2699,106751,123243
57.2882,106799,123299
57.2942,106825,123393
57.2966,106877,123462
57.3005,106894,123542
57.734,106931,123611
57.747,106887,123538
57.7543,106720,123162
57.7543,106486,122670
57.7634,106333,122251
57.7683,106240,122046
57.7724,106222,121993
57.7757,106249,122049
57.7757,106293,122175
57.7757,106362,122328
57.7757,106406,122428
57.782,106442,122541
57.782,106499,122668
57.7875,106542,122736
57.7908,106549,122772
57.7908,106571,122805
57.7908,106566,122821
57.793,106606,122909
57.793,106659,123026
57.793,106703,123154
57.794,106790,123294
57.794,106832,123453
57.795,106917,123631
57.795,106988,123785
57.795,107042,123956
58.2335,107104,124113
58.24,107163,124224
58.2474,107199,124301
58.249,107194,124384
58.2556,107209,124408
58.2642,107206,124425
58.2662,107243,124439
58.278,107233,124449
58.2875,107225,124404
58.29,107238,124376
58.296,107235,124327
58.3035,107234,124314
58.3081,107228,124293
58.3109,107224,124334
58.3188,107254,124391
58.3208,107294,124480
58.3236,107322,124520
58.3257,107344,124571
58.3288,107266,124468
58.3317,107118,124128
58.3368,106925,123732
58.3368,106766,123387
58.3383,106707,123197
58.3383,106674,123157
58.3393,106713,123199
58.729,106770,123319
58.7333,106801,123425
58.7354,106845,123574
58.7374,106895,123678
58.7397,106908,123782
58.7422,106997,123881
58.7453,106963,123865
58.7465,106945,123836
58.7485,106894,123802
58.7498,106910,123763
58.7682,106898,123772
58.7682,106963,123807
58.7793,106967,123889
58.7832,107041,123986
58.7881,107029,124125
58.7914,107121,124175
58.797,107171,124254
58.8014,107153,124244
58.8051,107160,124261
58.818,107107,124244
58.8239,107152,124202
58.8316,107133,124196
58.8326,107077,124144
58.841,107102,124147
58.8454,107117,124121
59.2359,107109,124133
59.2398,107126,124177
59.2398,107127,124227
59.2431,107147,124262
59.2483,107182,124325
59.2518,107215,124388
59.2555,107248,124405
59.2633,107250,124451
59.2684,107216,124417
59.2704,107079,124073
59.2744,106874,123596
59.2764,106662,123180
59.279,106559,122915
59.281,106536,122793
59.2876,106519,122798
59.2905,106581,122855
59.2916,106612,123024
59.2925,106657,123094
59.2925,106694,123159
59.2935,106731,123278
59.2935,106771,123382
59.2945,106770,123403
59.2945,106770,123399
59.2955,106757,123364
59.2965,106762,123400
59.7341,106777,123462
59.7406,106827,123509
59.7488,106858,123612
59.755,106895,123642
59.76,106934,123768
59.7646,106988,123857
59.7693,107016,123946
59.7703,107035,123991
59.7756,107079,124043
59.7812,107080,124074
59.8044,107079,124100
59.8239,107087,124099
59.8239,107087,124098
59.8253,107100,124122
59.8468,107100,124125
59.857,107110,124173
59.8676,107135,124209
59.8704,107162,124277
59.8752,107180,124324
59.8773,107212,124390
59.883,107252,124470
59.8897,107304,124577
59.8907,107327,124658
59.8952,107370,124713
59.9055,107316,124666
60.2423,107169,124320
60.25,106932,123824
60.253,106746,123364
60.2548,106624,123079
60.2633,106552,122948
60.2681,106574,122961
60.273,106620,123011
60.2757,106652,123082
60.2757,106673,123177
60.2848,106704,123213
60.2868,106741,123274
60.2881,106784,123357
60.2896,106802,123383
60.2944,106799,123417
60.298,106802,123424
60.298,106820,123444
60.298,106852,123508
60.3002,106894,123604
60.3002,106948,123730
60.3002,107017,123875
60.3012,107067,124043
60.3012,107147,124207
60.3012,107183,124349
60.3022,107235,124473
60.3022,107292,124593
60.735,107328,124688
60.737,107378,124767
60.7387,107398,124839
60.7422,107443,124906
60.7445,107474,124958
60.7468,107508,125044
60.7487,107550,125130
60.7487,107581,125158
60.7694,107587,125195
60.7775,107601,125266
60.7822,107632,125318
60.7844,107643,125384
60.7892,107678,125470
60.7947,107740,125548
60.7998,107750,125643
60.8056,107781,125675
60.8089,107716,125597
60.8193,107548,125207
60.8278,107347,124730
60.8318,107146,124324
60.8401,107041,124063
60.8452,106997,123938
60.8471,107005,123935
60.8511,107023,123963
60.8556,107039,123982
61.2394,107066,123974
61.2394,107059,123983
61.2426,107076,124037
61.2466,107094,124052
61.2487,107063,124018
61.2507,107032,123915
61.2537,107010,123861
61.2573,107011,123840
61.264,107010,123853
61.264,107038,123916
61.2651,107086,123971
61.2651,107125,124110
61.2651,107227,124275
61.2651,107248,124402
61.2651,107300,124485
61.2673,107345,124542
61.2683,107340,124604
61.2683,107387,124666
61.2724,107373,124730
61.2746,107415,124765
61.2763,107460,124772
61.2773,107420,124826
61.2807,107430,124825
61.2827,107438,124880
61.2964,107446,124890
61.7496,107468,124862
61.7496,107477,124930
61.7496,107521,124938
61.7578,107471,124951
61.7599,107490,125019
61.7612,107559,125088
61.7656,107559,125160
61.7702,107582,125140
61.7724,107492,125051
61.7844,107352,124690
61.789,107134,124197
61.796,106930,123779
61.8002,106854,123529
61.8022,106807,123452
61.803,106831,123458
61.808,106874,123546
61.8121,106866,123595
61.818,106885,123630
61.8201,106911,123659
61.8201,106918,123707
61.8244,106944,123771
61.8264,106965,123763
61.8274,106951,123794
61.8304,106959,123745
61.8314,106974,123784
62.2402,106976,123826
62.244,107001,123842
62.2467,107016,123880
62.2467,107058,123959
62.2514,107103,124032
62.2544,107117,124066
62.2606,107146,124111
62.2626,107149,124159
62.2763,107152,124152
62.2843,107166,124201
62.2893,107164,124233
62.2959,107194,124247
62.301,107186,124296
62.3062,107214,124324
62.3072,107215,124367
62.3102,107247,124454
62.3126,107296,124513
62.3136,107302,124594
62.3156,107365,124680
62.3176,107387,124756
62.323,107413,124833
62.3249,107462,124919
62.3249,107478,125003
62.3249,107518,125079
62.3249,107552,125114
62.7379,107560,125119
62.7379,107491,125033
62.7489,107332,124713
62.7587,107110,124218
62.7617,106934,123764
62.7667,106812,123496
62.7713,106784,123410
62.7821,106808,123421
62.7854,106845,123520
62.7874,106911,123619
62.7879,106945,123727
62.7897,106973,123799
62.7897,107036,123915
62.8102,107080,124008
62.8209,107084,124067
62.8209,107109,124089
62.8495,107090,124093
62.8526,107097,124110
62.8567,107129,124138
62.8727,107142,124204
62.876,107167,124250
62.8841,107224,124362
62.8861,107259,124471
62.8983,107298,124617
62.9074,107358,124728
63.2425,107402,124839
63.245,107409,124938
63.245,107472,125002
63.2507,107482,125072
63.2527,107528,125136
63.2541,107534,125200
63.2648,107579,125265
63.2673,107622,125338
63.2682,107662,125411
63.2725,107684,125474
63.2735,107718,125550
63.2755,107762,125622
63.2779,107784,125685
63.283,107826,125750
63.285,107843,125834
63.285,107887,125901
63.285,107911,126029
63.285,107949,126106
63.285,107977,126173
63.285,107949,126155
63.2881,107839,125903
63.2881,107631,125427
63.2891,107419,124939
63.2891,107305,124612
63.2899,107243,124412
63.7532,107286,124429
63.7532,107311,124500
63.7532,107359,124582
63.7592,107366,124668
63.7632,107392,124725
63.7652,107436,124808
63.7682,107471,124839
63.773,107464,124833
63.7781,107441,124799
63.7954,107417,124732
63.7964,107397,124697
63.8031,107389,124683
63.8069,107404,124703
63.8138,107421,124751
63.816,107453,124817
63.817,107484,124901
63.823,107512,124975
63.8248,107541,125068
63.8259,107564,125122
63.8259,107592,125180
63.8316,107609,125216
63.8346,107592,125251
63.8387,107602,125288
63.8397,107634,125318
63.8407,107643,125338
64.2463,107663,125396
64.2463,107676,125428
64.2577,107699,125474
64.2612,107695,125500
64.2679,107752,125582
64.2689,107781,125626
64.2752,107801,125718
64.2899,107863,125809
64.2982,107869,125826
64.3032,107869,125895
64.3062,107852,125759
64.3126,107679,125430
64.3175,107393,124887
64.3228,107231,124431
64.3275,107124,124089
64.3285,107066,123887
64.3309,107074,123934
64.3329,107135,123983
64.3367,107168,124084
64.3402,107190,124180
64.3422,107246,124297
64.3446,107305,124477
64.3456,107335,124544
64.3456,107315,124568
64.3466,107319,124485
64.7468,107272,124407
64.7468,107249,124377
64.7514,107314,124397
64.7573,107309,124420
64.7593,107297,124491
64.7628,107325,124566
64.7748,107376,124702
64.7814,107406,124811
64.7883,107452,124945
64.7903,107479,124984
64.7977,107461,124938
64.801,107466,124939
64.8058,107439,124903
64.8093,107423,124886
64.8093,107384,124759
64.8133,107358,124687
64.8143,107356,124630
64.8161,107332,124683
64.8186,107368,124716
64.823,107361,124695
64.8267,107391,124727
64.8267,107408,124761
64.8267,107416,124798
64.8267,107448,124861
64.8297,107462,124930
65.243,107492,124927
65.248,107478,124907
65.2537,107345,124680
65.257,107121,124167
65.2607,106866,123624
65.2712,106706,123211
65.2769,106621,123007
65.2821,106612,122958
65.2919,106644,123027
65.2966,106676,123109
65.3012,106704,123200
65.3044,106728,123280
65.308,106772,123359
65.3138,106823,123498
65.3172,106867,123605
65.3265,106919,123680
65.3275,106917,123740
65.3312,106936,123757
65.3363,106926,123766
65.3383,106937,123790
65.3401,106951,123858
65.3421,106979,123913
65.3457,107008,124007
65.3512,107066,124107
65.3526,107113,124213
65.7526,107125,124301
65.7526,107161,124350
65.7601,107156,124348
65.7649,107186,124355
65.7679,107178,124353
65.7968,107196,124359
65.8149,107196,124336
65.8169,107178,124317
65.8169,107173,124272
65.8169,107175,124256
65.8186,107149,124234
65.8186,107165,124205
65.8207,107151,124193
65.8315,107156,124192
65.8324,107152,124245
65.833,107173,124253
65.833,107177,124305
65.8644,107200,124325
65.8684,107161,124310
65.8734,107035,124040
65.8784,106813,123551
65.8823,106619,123089
65.8945,106508,122790
65.9005,106452,122650
65.9088,106488,122677
66.2435,106526,122755
66.2435,106582,122884
66.2592,106604,123007
66.2672,106645,123073
66.2757,106674,123148
66.2822,106688,123184
66.2867,106686,123199
66.2895,106643,123166
66.2895,106640,123111
66.3038,106623,123094
66.3133,106621,123080
66.3202,106642,123130
66.3238,106660,123168
66.3238,106738,123268
66.3295,106768,123441
66.3337,106834,123589
66.3399,106884,123734
66.3409,106933,123892
66.3443,106982,123994
66.3443,107029,124100
66.3481,107048,124173
66.3491,107089,124225
66.3511,107137,124275
66.3533,107159,124291
66.3557,107137,124268
66.7497,107159,124266
66.754,107147,124239
66.754,107129,124241
66.762,107166,124314
66.766,107200,124402
66.7702,107252,124534
66.7712,107306,124698
66.7742,107366,124794
66.7776,107410,124916
66.8064,107467,124969
66.8272,107435,124937
66.8407,107232,124614
66.845,107070,124123
66.8511,106918,123761
66.8554,106828,123542
66.8625,106832,123495
66.8625,106841,123578
66.8673,106935,123673
66.8693,106980,123793
66.8693,107028,123868
66.873,107070,123966
66.8744,107099,124066
66.8755,107125,124113
66.8755,107128,124088
66.8765,107083,124082
67.2463,107057,124014
67.2487,107070,123993
67.2507,107053,124016
67.2527,107120,124057
67.2565,107150,124213
67.2584,107201,124307
67.2604,107254,124438
67.2613,107294,124515
67.2613,107329,124590
67.282,107362,124656
67.293,107357,124652
67.2969,107335,124633
67.3019,107336,124661
67.3019,107363,124633
67.3069,107372,124667
67.3089,107379,124663
67.3221,107401,124685
67.3244,107381,124730
67.3367,107397,124735
67.3376,107417,124797
67.3376,107454,124812
67.3482,107475,124848
67.3505,107460,124816
67.3514,107456,124815
67.3547,107477,124803
67.7432,107421,124698
67.7432,107284,124423
67.7507,107114,123995
67.7507,106925,123610
67.7564,106820,123409
67.7732,106803,123273
67.7822,106798,123272
67.7822,106816,123263
67.789,106822,123296
67.7948,106820,123301
67.8,106864,123377
67.801,106894,123521
67.8121,106934,123620
67.8161,106947,123655
67.8243,106956,123724
67.8243,106976,123706
67.8307,106960,123736
67.8398,106970,123731
67.8436,107004,123801
67.8468,107048,123851
67.8498,107073,123943
67.8508,107087,123965
67.8518,107104,123998
67.8573,107113,124022
67.8588,107134,124069
68.252,107166,124167
68.267,107211,124221
68.2709,107209,124238
68.2768,107211,124272
68.281,107224,124301
68.2814,107238,124305
68.2908,107234,124301
68.3022,107226,124275
68.3111,107203,124226
68.3195,107190,124194
68.3227,107175,124154
68.3262,107178,124140
68.3321,107183,124112
68.3331,107159,124050
68.3341,107141,124027
68.3366,107018,123798
68.3403,106848,123372
68.3413,106659,122927
68.3433,106521,122594
68.3459,106471,122422
68.3524,106471,122424
68.3534,106498,122508
68.3534,106539,122569
68.3544,106565,122639
68.3544,106590,122678
68.7443,106631,122775
68.7531,106668,122862
68.7531,106676,122905
68.7531,106665,122896
68.7611,106656,122886
68.7671,106660,122880
68.7718,106647,122852
68.7728,106650,122846
68.7741,106672,122909
68.7757,106714,122981
68.7783,106740,123054
68.7823,106800,123133
68.7843,106807,123206
68.7888,106835,123263
68.7898,106868,123304
68.7898,106892,123336
68.7908,106907,123359
68.7908,106904,123370
68.7919,106911,123378
68.7919,106930,123427
68.7919,106947,123478
68.7919,106950,123522
68.7919,106974,123553
68.7967,106991,123604
68.7978,106999,123674
69.2504,107021,123735
69.2536,107052,123774
69.2665,107086,123859
69.2716,107146,123942
69.2787,107161,123983
69.2819,107110,123885
69.2865,106937,123525
69.2902,106722,123043
69.2959,106567,122656
69.3007,106486,122426
69.3028,106460,122329
69.3127,106466,122376
69.3207,106518,122425
69.3242,106528,122477
69.3283,106565,122521
69.3325,106562,122514
69.3381,106604,122601
69.3416,106631,122649
69.3436,106646,122681
69.3451,106652,122697
69.3483,106640,122711
69.3493,106636,122734
69.3503,106684,122776
69.3538,106691,122853
69.356,106755,122958
69.7522,106781,123020
69.7547,106833,123139
69.7697,106856,123232
69.7747,106917,123369
69.7851,106958,123452
69.7883,106961,123535
69.7883,107000,123615
69.8018,107037,123701
69.8091,107057,123760
69.8142,107068,123832
69.8172,107128,123911
69.8231,107175,123994
69.8296,107184,124079
69.8343,107218,124166
69.8363,107292,124234
69.8385,107257,124322
69.8423,107305,124400
69.8433,107363,124497
69.8456,107421,124584
69.8476,107425,124706
69.8517,107502,124795
69.8546,107563,124889
69.8556,107498,124887
69.8556,107372,124631
69.8567,107225,124170
70.2549,107007,123784
70.2549,106934,123515
70.2677,106913,123440
70.2699,106950,123492
70.2709,106976,123580
70.2709,107033,123692
70.2789,107068,123755
70.2799,107101,123842
70.2871,107137,123932
70.2891,107161,124050
70.2994,107243,124131
70.3088,107203,124118
70.313,107178,124137
70.3182,107199,124131
70.3236,107226,124134
70.329,107253,124182
70.3343,107290,124276
70.3353,107380,124341
70.3381,107367,124376
70.3381,107438,124481
70.3422,107447,124568
70.3442,107497,124618
70.3457,107511,124733
70.3478,107534,124727
70.353,107583,124789
70.7555,107548,124861
70.7574,107610,124882
70.7632,107627,124929
70.7687,107632,125013
70.7707,107663,124997
70.7813,107662,125009
70.789,107658,125140
70.7898,107705,125138
70.7978,107731,125206
70.8018,107777,125254
70.8091,107777,125344
70.8106,107811,125414
70.8164,107835,125421
70.8205,107820,125483
70.8243,107745,125318
70.8254,107559,125011
70.8274,107385,124559
70.8294,107250,124235
70.8329,107196,124075
70.8359,107209,124038
70.8369,107225,124075
70.8379,107259,124180
70.8379,107313,124209
70.8389,107320,124264
70.8389,107360,124337
71.2561,107403,124417
71.2601,107401,124461
71.2673,107407,124445
71.2779,107387,124437
71.2843,107369,124402
71.2897,107374,124379
71.2915,107368,124390
71.2977,107393,124417
71.3022,107426,124486
71.3033,107448,124557
71.3175,107487,124639
71.323,107516,124698
71.3311,107539,124743
71.3311,107568,124809
71.3385,107585,124858
71.3415,107588,124888
71.3661,107604,124923
71.3734,107624,124954
71.3915,107647,125001
71.3965,107651,125037
71.4194,107678,125069
71.4255,107697,125116
71.4397,107729,125178
71.4439,107755,125211
71.4498,107781,125250
71.7632,107796,125301
71.7632,107828,125370
71.7632,107845,125446
71.7632,107870,125526
71.775,107862,125486
71.7759,107735,125267
71.7879,107529,124808
71.7889,107342,124371
71.7889,107195,124037
71.796,107135,123844
71.7982,107123,123805
71.7991,107167,123834
71.8041,107174,123903
71.8071,107203,123971
71.8091,107229,124034
71.8108,107266,124119
71.8108,107300,124212
71.8108,107339,124265
71.8124,107336,124265
71.8124,107342,124274
71.8134,107344,124282
71.8134,107372,124316
71.8144,107382,124348
71.8144,107422,124414
71.8154,107459,124509
72.2577,107511,124625
72.2609,107546,124690
72.2609,107588,124784
72.2675,107606,124820
72.2705,107626,124865
72.2715,107646,124892
72.2725,107659,124909
72.2751,107665,124936
72.2771,107670,124967
72.2839,107682,124974
72.2883,107694,125003
72.2883,107707,125048
72.2883,107728,125075
72.2883,107734,125122
72.2931,107749,125143
72.2931,107766,125193
72.2936,107776,125252
72.2936,107796,125285
72.2946,107837,125322
72.2952,107849,125364
72.2965,107855,125396
72.2988,107803,125294
72.3011,107644,124946
72.3021,107415,124407
72.3021,107228,123958
72.7622,107135,123680
72.7716,107090,123564
72.7771,107095,123530
72.7814,107119,123575
72.7814,107131,123598
72.7883,107128,123637
72.7905,107149,123670
72.8018,107159,123746
72.8066,107215,123801
72.8091,107198,123818
72.8157,107171,123805
72.8157,107189,123792
72.8241,107190,123771
72.8296,107161,123789
72.8343,107184,123788
72.8353,107200,123860
72.8368,107254,123904
72.8368,107257,123978
72.8417,107301,124051
72.8437,107303,124097
72.8469,107333,124170
72.8469,107341,124208
72.8537,107340,124224
72.8547,107370,124247
72.8547,107366,124273
73.2644,107394,124282
73.2704,107398,124271
73.2734,107408,124313
73.2766,107425,124328
73.2776,107431,124373
73.2816,107468,124394
73.2857,107478,124455
73.2867,107511,124502
73.2882,107517,124560
73.2932,107543,124589
73.2967,107546,124635
73.3088,107566,124660
73.3143,107579,124723
73.3199,107609,124736
73.3226,107585,124698
73.3271,107435,124407
73.3291,107205,123914
73.3299,107048,123489
73.339,106918,123181
73.341,106846,123019
73.3434,106876,123003
73.3434,106891,123035
73.3475,106931,123120
73.3485,106930,123146
73.3516,106939,123181
73.7584,106964,123219
73.7589,106984,123258
73.7589,107006,123251
73.7641,106974,123254
73.7664,106978,123215
73.7685,106937,123190
73.7697,106975,123209
73.772,106979,123192
73.7887,106993,123273
73.7998,107038,123329
73.8029,107091,123414
73.8064,107113,123477
73.81,107136,123530
73.814,107155,123635
73.8194,107179,123637
73.8225,107202,123711
73.8284,107234,123712
73.8304,107223,123729
73.8335,107221,123755
73.8393,107255,123787
73.8514,107256,123859
73.8609,107276,123866
73.8653,107296,123963
73.8727,107328,123969
73.8753,107309,124035
74.2608,107343,124111
74.2608,107388,124120
74.2608,107399,124175
74.2608,107435,124216
74.2608,107465,124299
74.2608,107480,124344
74.2728,107491,124396
74.2748,107516,124437
74.2762,107495,124405
74.2773,107413,124224
74.2806,107174,123753
74.2826,106958,123336
74.2842,106867,123044
74.2853,106863,122886
74.3088,106850,122942
74.3186,106888,122995
74.3234,106931,123109
74.3264,106933,123155
74.3284,106953,123204
74.3304,106990,123230
74.3334,107031,123337
74.3354,107054,123387
74.342,107009,123413
74.345,107009,123389
74.3495,107017,123389
74.7601,107050,123431
74.7601,107090,123518
74.7601,107125,123559
74.7698,107148,123660
74.7729,107227,123765
74.7748,107256,123853
74.7811,107311,123961
74.7831,107338,124046
74.7831,107369,124117
74.7831,107400,124177
74.7878,107421,124275
74.7888,107457,124279
74.7895,107477,124337
74.7895,107492,124381
74.7906,107517,124433
74.7906,107551,124483
74.7926,107582,124516
74.7949,107599,124611
74.7964,107617,124674
74.7964,107646,124768
74.7964,107685,124825
74.8029,107692,124890
74.8049,107721,124958
74.8062,107748,125016
74.8236,107786,125093
75.2611,107827,125152
75.2631,107858,125220
75.2651,107849,125222
75.2671,107753,125004
75.2705,107551,124601
75.2718,107346,124165
75.2739,107223,123858
75.2755,107178,123691
75.2889,107180,123656
75.303,107216,123730
75.306,107259,123860
75.307,107291,123941
75.31,107325,123992
75.3142,107367,124092
75.3204,107404,124153
75.3243,107422,124178
75.3312,107395,124144
75.3328,107388,124140
75.3338,107365,124095
75.3426,107359,124063
75.345,107390,124100
75.3521,107396,124127
75.3582,107429,124215
75.3645,107438,124273
75.3659,107491,124352
75.7616,107492,124407
75.7616,107520,124452
75.7616,107540,124489
75.7616,107540,124497
75.783,107548,124495
75.7879,107535,124499
75.7958,107544,124506
75.7958,107570,124529
75.8044,107596,124567
75.8084,107604,124594
75.8103,107618,124631
75.8202,107648,124648
75.8235,107657,124711
75.8337,107668,124740
75.8374,107700,124763
75.8445,107712,124809
75.8517,107731,124848
75.8517,107752,124905
75.8583,107774,124933
75.8617,107750,124897
75.8637,107647,124694
75.865,107450,124284
75.865,107264,123841
75.87,107133,123527
75.871,107075,123367
76.2641,107074,123347
76.2697,107115,123428
76.2713,107157,123524
76.2768,107186,123603
76.2806,107238,123682
76.2834,107265,123781
76.2845,107292,123843
76.2865,107308,123836
76.2895,107259,123782
76.2921,107248,123754
76.2982,107234,123738
76.2992,107234,123736
76.3002,107254,123766
76.3002,107298,123811
76.3012,107320,123905
76.3017,107357,123991
76.3017,107407,124083
76.3027,107438,124152
76.3032,107453,124212
76.3032,107479,124241
76.3032,107481,124281
76.3053,107506,124305
76.3063,107529,124341
76.3083,107547,124366
76.3111,107560,124369
76.7633,107567,124419
76.7668,107596,124457
76.7668,107609,124487
76.7754,107615,124512
76.7766,107632,124569
76.7829,107633,124602
76.7849,107665,124644
76.7861,107692,124711
76.7871,107729,124743
76.7895,107749,124820
76.7924,107770,124884
76.7954,107748,124886
76.7964,107653,124676
76.7964,107469,124275
76.7964,107281,123871
76.8007,107147,123558
76.8007,107072,123384
76.8017,107078,123357
76.8017,107105,123406
76.8028,107157,123532
76.8048,107232,123651
76.8056,107264,123745
76.8056,107310,123829
76.8103,107360,123924
76.8103,107370,123944
77.2639,107378,123945
77.2705,107373,123929
77.2705,107374,123924
77.2705,107377,123935
77.2705,107390,123969
77.2755,107440,124009
77.2764,107457,124089
77.2786,107509,124175
77.2806,107544,124266
77.2828,107569,124364
77.2848,107589,124429
77.2867,107609,124459
77.2887,107646,124521
77.2913,107669,124542
77.2934,107670,124566
77.2944,107704,124610
77.2964,107720,124655
77.2986,107745,124703
77.3007,107761,124762
77.3172,107786,124839
77.3284,107835,124891
77.3308,107857,124984
77.339,107874,125083
77.3411,107921,125173
77.3458,107950,125254
77.7672,108002,125324
77.7672,108024,125449
77.7672,108068,125517
77.7762,108084,125599
77.7817,108083,125586
77.8115,107978,125384
77.8311,107835,125031
77.8513,107675,124705
77.8535,107591,124489
77.8535,107546,124416
77.8535,107584,124449
77.8535,107633,124529
77.8535,107664,124638
77.8535,107740,124746
77.8573,107733,124829
77.8584,107814,124942
77.8594,107820,125001
77.8594,107833,125060
77.861,107795,125039
77.861,107793,125032
77.8621,107796,125021
77.8621,107849,125045
77.8631,107869,125075
77.8631,107882,125141
77.8642,107920,125227
78.2657,107949,125265
78.2657,107984,125339
78.2804,108035,125426
78.2845,108021,125535
78.2884,108100,125603
78.295,108112,125694
78.2975,108182,125743
78.3062,108166,125820
78.309,108192,125878
78.3148,108192,125943
78.3158,108261,125975
78.3193,108262,126070
78.3214,108309,126125
78.3262,108325,126199
78.3321,108382,126256
78.3331,108396,126353
78.3331,108400,126388
78.3331,108446,126486
78.3331,108473,126573
78.3331,108507,126652
78.3331,108530,126707
78.3353,108486,126698
78.3353,108432,126521
78.3353,108264,126190
78.3367,108095,125861
78.7702,107982,125557
78.776,107937,125402
78.779,107882,125355
78.7837,107892,125395
78.7912,107936,125414
78.7957,107989,125452
78.8005,108006,125489
78.8031,108037,125560
78.8075,108037,125589
78.8095,108004,125586
78.8118,108047,125549
78.8139,107998,125506
78.8149,107976,125500
78.8174,107966,125503
78.8195,108029,125528
78.8251,108038,125559
78.8271,108054,125603
78.8281,108089,125698
78.8281,108135,125763
78.8281,108137,125826
78.8291,108141,125861
78.8291,108158,125932
78.8304,108213,125994
78.8311,108199,125967
78.8311,108229,126023
79.2765,108191,126020
79.2765,108244,125998
79.2885,108238,126030
79.2885,108261,126107
79.2967,108258,126118
79.301,108300,126167
79.3026,108311,126204
79.3075,108334,126221
79.3114,108318,126269
79.3235,108353,126350
79.3294,108383,126389
79.3371,108386,126369
79.3416,108338,126341
79.3466,108211,126073
79.3511,108047,125755
79.359,107897,125399
79.359,107819,125153
79.3641,107759,125080
79.3655,107780,125053
79.3672,107797,125110
79.3683,107813,125152
79.3688,107829,125146
79.3728,107857,125227
79.3777,107879,125313
79.3787,107901,125310
79.7711,107879,125304
79.7711,107858,125268
79.7711,107860,125257
79.7789,107858,125247
79.781,107886,125283
79.783,107885,125313
79.783,107923,125361
79.7848,107960,125459
79.7858,107975,125529
79.7897,108017,125591
79.7902,108044,125659
79.7962,108063,125715
79.7984,108084,125724
79.7994,108081,125779
79.7994,108112,125775
79.8004,108120,125811
79.8004,108126,125858
79.8026,108142,125873
79.8041,108151,125927
79.8066,108161,125959
79.8086,108202,126022
79.8109,108215,126049
79.8126,108231,126078
79.8156,108234,126119
79.8166,108259,126172
80.2681,108279,126208
80.2681,108303,126291
80.2681,108312,126312
80.2877,108310,126315
80.2887,108206,126075
80.2977,108014,125708
80.3041,107875,125339
80.3106,107780,125087
80.3165,107745,124967
80.3186,107725,124946
80.3206,107738,124954
80.3311,107753,124973
80.3311,107772,125003
80.3394,107783,125054
80.3414,107823,125110
80.3472,107831,125148
80.3492,107838,125147
80.3517,107839,125117
80.3563,107833,125094
80.3593,107814,125084
80.3652,107830,125074
80.3677,107842,125126
80.3709,107887,125156
80.3725,107904,125254
80.3742,107942,125318
80.7762,107973,125380
80.7844,107982,125447
80.79,108012,125473
80.792,108030,125517
80.7985,108034,125525
80.8024,108055,125570
80.805,108052,125581
80.8165,108063,125604
80.8198,108092,125624
80.8251,108094,125656
80.8301,108082,125687
80.831,108108,125692
80.8393,108124,125742
80.844,108130,125763
80.8485,108142,125796
80.8515,108163,125839
80.8515,108175,125857
80.8552,108190,125909
80.8562,108201,125946
80.8589,108225,125972
80.861,108185,125919
80.866,108103,125723
80.867,107931,125358
80.867,107784,124988
80.867,107694,124727
81.2785,107659,124589
81.2785,107657,124591
81.2785,107694,124667
81.2875,107735,124740
81.2905,107753,124804
81.2915,107782,124865
81.2955,107826,124946
81.2968,107852,125012
81.3018,107882,125040
81.3134,107879,125040
81.3182,107875,125053
81.3264,107894,125054
81.3299,107890,125070
81.3299,107926,125135
81.34,107970,125187
81.341,108017,125272
81.3455,108050,125380
81.3485,108096,125452
81.3495,108126,125534
81.3504,108171,125626
81.3528,108212,125689
81.3548,108221,125757
81.3568,108261,125814
81.3574,108257,125863
81.363,108297,125935
81.7696,108334,125984
81.7696,108371,126073
81.7789,108394,126148
81.7789,108442,126246
81.7826,108472,126328
81.7865,108511,126421
81.7913,108549,126515
81.7923,108587,126603
81.7943,108625,126696
81.8068,108663,126772
81.8101,108691,126859
81.8174,108721,126900
81.8195,108738,126962
81.8232,108679,126872
81.8257,108536,126577
81.8277,108370,126192
81.834,108264,125885
81.837,108178,125709
81.838,108200,125673
81.8403,108227,125728
81.8433,108248,125795
81.8451,108299,125873
81.8473,108325,125969
81.8493,108367,126056
81.853,108428,126131
82.2706,108459,126216
82.2706,108479,126214
82.2706,108467,126227
82.2706,108486,126232
82.2804,108491,126236
82.2824,108511,126311
82.2848,108528,126359
82.2868,108564,126453
82.2888,108611,126554
82.3019,108667,126660
82.3089,108694,126739
82.3169,108723,126817
82.3199,108735,126875
82.3259,108743,126926
82.3297,108750,126956
82.3297,108754,126977
82.3396,108779,127010
82.3485,108793,127058
82.3553,108798,127098
82.3589,108832,127128
82.3661,108840,127182
82.3671,108859,127205
82.3706,108872,127246
82.3724,108907,127297
82.3759,108922,127338
82.7713,108925,127391
82.7713,108969,127426
82.7926,108965,127494
82.7956,109008,127555
82.8035,109014,127579
82.8066,109000,127579
82.8128,108912,127406
82.8158,108743,127035
82.8213,108559,126614
82.8228,108431,126302
82.8368,108366,126114
82.8449,108340,126063
82.8506,108361,126089
82.8506,108410,126156
82.8561,108403,126193
82.8595,108431,126272
82.8641,108462,126342
82.8665,108498,126390
82.8695,108503,126379
82.8716,108482,126357
82.8752,108481,126326
82.8762,108479,126321
82.8772,108474,126316
82.8808,108481,126356
82.884,108510,126394
83.2723,108551,126456
83.2723,108602,126550
83.2839,108610,126634
83.287,108649,126694
83.2886,108654,126762
83.2944,108688,126799
83.2964,108689,126849
83.2964,108697,126862
83.3019,108713,126877
83.306,108719,126907
83.3111,108729,126950
83.3121,108750,126965
83.3121,108739,127005
83.3131,108786,127040
83.3131,108793,127098
83.3141,108800,127130
83.3141,108831,127147
83.3151,108846,127196
83.3151,108847,127211
83.3164,108878,127239
83.3174,108902,127268
83.3179,108934,127319
83.3187,108923,127366
83.3207,108939,127392
83.3227,108926,127386
83.7727,108818,127181
83.7727,108624,126755
83.7797,108440,126295
83.7817,108282,125941
83.7845,108226,125752
83.7869,108208,125708
83.7878,108256,125719
83.7888,108254,125794
83.7927,108281,125825
83.7927,108270,125851
83.7967,108289,125906
83.7977,108314,125956
83.7977,108334,125980
83.8163,108330,125967
83.8277,108287,125930
83.8302,108335,125915
83.8302,108276,125879
83.8412,108295,125922
83.844,108314,125974
83.8469,108330,126060
83.8489,108400,126102
83.8649,108442,126210
83.8709,108473,126274
83.8735,108484,126336
83.8776,108517,126381
84.2777,108493,126403
84.2777,108513,126431
84.2956,108503,126511
84.2974,108520,126513
84.2974,108524,126513
84.3061,108544,126538
84.3095,108561,126562
84.3166,108602,126645
84.3187,108611,126660
84.3234,108643,126737
84.3252,108680,126797
84.3272,108637,126830
84.3282,108675,126847
84.3313,108697,126919
84.3356,108686,126954
84.3384,108748,127010
84.3405,108778,127003
84.3416,108753,127088
84.3416,108774,127081
84.3425,108796,127172
84.3425,108771,127115
84.3435,108694,126933
84.3435,108509,126572
84.3445,108303,126049
84.3453,108152,125653
84.7823,108055,125420
84.7879,108049,125323
84.7935,108023,125321
84.7973,108065,125391
84.8048,108055,125386
84.8094,108070,125418
84.8094,108098,125449
84.8233,108096,125515
84.8303,108089,125578
84.8351,108101,125539
84.8371,108076,125509
84.8371,108063,125481
84.8449,108059,125451
84.8471,108050,125494
84.8471,108087,125408
84.8545,108072,125502
84.8555,108107,125510
84.8585,108086,125531
84.861,108110,125594
84.863,108102,125578
84.8659,108140,125616
84.8676,108128,125616
84.8686,108125,125603
84.8716,108120,125615
84.9006,108110,125627
85.2789,108147,125632
85.2799,108128,125645
85.2799,108179,125690
85.2882,108163,125689
85.3007,108179,125714
85.3064,108204,125755
85.3088,108220,125854
85.3186,108220,125893
85.3196,108271,125903
85.3232,108297,125972
85.325,108332,126017
85.327,108347,126076
85.331,108359,126117
85.336,108387,126181
85.338,108404,126219
85.3395,108410,126255
85.3395,108403,126261
85.3432,108287,125990
85.3456,108089,125525
85.3466,107891,125102
85.3503,107778,124789
85.3545,107718,124665
85.3555,107748,124686
85.3565,107770,124770
85.3565,107804,124848
85.775,107820,124840
85.7811,107835,124890
85.7811,107849,124962
85.7894,107862,124995
85.7934,107887,125021
85.7954,107878,124984
85.8018,107861,124987
85.8096,107879,124956
85.8167,107889,124993
85.8227,107897,125036
85.826,107904,125092
85.8296,107926,125155
85.8366,107965,125251
85.8366,107998,125306
85.8432,108009,125419
85.8468,108049,125449
85.8478,108047,125483
85.8488,108066,125521
85.8506,108082,125551
85.8546,108086,125573
85.8573,108098,125620
85.8604,108105,125649
85.8604,108134,125692
85.8614,108166,125746
85.8614,108177,125838
86.2862,108222,125882
86.2862,108259,125971
86.2862,108292,126058
86.2862,108310,126144
86.297,108355,126237
86.3,108384,126315
86.3023,108422,126377
86.3096,108445,126472
86.3243,108464,126530
86.3303,108512,126623
86.338,108526,126691
86.3395,108564,126775
86.3455,108597,126829
86.3495,108581,126828
86.3526,108460,126582
86.3599,108276,126111
86.3629,108063,125669
86.3639,107953,125355
86.3665,107896,125209
86.3675,107913,125211
86.369,107933,125293
86.373,107996,125387
86.3768,108010,125480
86.3789,108061,125551
86.3794,108105,125667
86.7886,108124,125743
86.8017,108134,125794
86.8061,108134,125789
86.8119,108125,125785
86.8149,108125,125788
86.8228,108144,125818
86.8248,108164,125874
86.8302,108184,125957
86.8421,108254,126052
86.846,108287,126168
86.8543,108333,126274
86.858,108383,126369
86.858,108404,126444
86.8644,108413,126496
86.8669,108442,126534
86.8679,108448,126563
86.8709,108461,126591
86.8755,108469,126589
86.879,108479,126634
86.8794,108505,126636
86.8831,108512,126679
86.8851,108525,126720
86.8866,108558,126727
86.8876,108560,126752
86.8904,108558,126790
87.2829,108581,126832
87.2829,108590,126832
87.2829,108590,126829
87.2901,108592,126847
87.291,108610,126853
87.292,108613,126890
87.294,108613,126874
87.3231,108613,126878
87.3231,108525,126730
87.3451,108357,126337
87.3603,108149,125823
87.3669,107973,125408
87.374,107862,125156
87.3891,107835,125030
87.401,107854,125059
87.4136,107905,125144
87.4218,107932,125246
87.4296,107971,125309
87.4327,107983,125386
87.4372,108014,125473
87.4446,108033,125496
87.4476,108000,125469
87.4496,107984,125414
87.4599,107983,125367
87.4641,107956,125353
87.7811,107983,125370
87.7833,107984,125407
87.7853,108022,125476
87.7853,108053,125564
87.7909,108096,125656
87.7927,108124,125756
87.8035,108145,125803
87.8107,108171,125867
87.8184,108202,125912
87.824,108204,125946
87.8275,108215,125961
87.8275,108223,125977
87.8335,108232,125993
87.8345,108240,126024
87.8371,108247,126072
87.8451,108255,126098
87.849,108304,126141
87.8513,108312,126195
87.8574,108342,126250
87.8599,108358,126289
87.864,108376,126317
87.8674,108392,126384
87.8704,108404,126440
87.873,108433,126504
87.8761,108477,126555
88.29,108484,126590
88.29,108482,126593
88.3023,108375,126375
88.3053,108175,125889
88.3063,107935,125363
88.3106,107784,124962
88.3136,107721,124763
88.3243,107706,124719
88.3243,107734,124759
88.3358,107788,124846
88.3378,107802,124919
88.3482,107815,124963
88.3511,107850,125016
88.3599,107845,125069
88.364,107878,125106
88.3649,107844,125081
88.3695,107848,125036
88.3701,107822,125010
88.3721,107810,125004
88.3721,107819,124996
88.3721,107843,125049
88.3772,107848,125112
88.3808,107870,125183
88.3836,107935,125275
88.3846,107951,125369
88.7856,107961,125420
88.7856,107967,125450
88.7916,107967,125445
88.7969,107960,125417
88.7979,107947,125422
88.7999,107946,125399
88.8019,107928,125396
88.8074,107939,125359
88.8115,107931,125378
88.8115,107919,125372
88.8169,107950,125415
88.8297,107966,125474
88.8366,107993,125511
88.8419,108011,125563
88.8484,108023,125616
88.8515,108070,125686
88.8545,108111,125711
88.8555,108133,125803
88.857,108156,125856
88.8593,108192,125920
88.8623,108196,125950
88.8643,108210,125966
88.868,108136,125877
88.869,107987,125504
88.87,107742,124972
89.287,107563,124522
89.287,107466,124263
89.287,107425,124126
89.287,107440,124155
89.2993,107487,124231
89.3024,107513,124343
89.3115,107545,124391
89.3162,107547,124426
89.3302,107579,124482
89.3412,107590,124531
89.3458,107580,124504
89.3478,107586,124469
89.35,107564,124426
89.3539,107524,124396
89.3549,107539,124383
89.3585,107549,124435
89.3606,107568,124485
89.3626,107633,124564
89.3636,107641,124612
89.368,107656,124673
89.3712,107651,124701
89.3744,107609,124627
89.3754,107577,124569
89.376,107576,124526
89.3765,107573,124521
89.7943,107583,124531
89.7986,107600,124588
89.8047,107627,124625
89.8087,107662,124705
89.8087,107666,124763
89.8213,107691,124867
89.8667,107743,124941
89.8677,107777,125067
89.8888,107838,125178
89.8922,107845,125304
89.9129,107929,125430
89.9129,107961,125551
89.9215,107999,125664
89.9258,108026,125738
89.9277,108075,125833
89.9395,108117,125910
89.9466,108156,126031
89.9479,108213,126127
89.9513,108210,126176
89.9588,108207,126151
89.9628,108061,125820
89.9683,107834,125347
89.9713,107642,124903
89.9713,107542,124604
89.9761,107462,124474
90.2874,107509,124493
90.2874,107511,124600
90.2874,107554,124668
90.3021,107633,124766
90.3129,107630,124818
90.3188,107612,124902
90.3207,107663,124956
90.3231,107713,124972
90.3307,107646,124961
90.333,107668,124951
90.334,107644,124941
90.3369,107675,124970
90.338,107695,125046
90.34,107750,125158
90.341,107789,125261
90.3445,107830,125381
90.3477,107873,125507
90.3507,107906,125602
90.3517,107961,125667
90.3524,108007,125714
90.3524,107993,125753
90.3536,107969,125755
90.3536,107995,125778
90.3546,108030,125766
90.3546,107991,125760
90.781,108043,125794
90.7887,107993,125803
90.7887,108037,125849
90.7887,108051,125888
90.7945,108055,125879
90.7969,108060,125934
90.811,108113,125961
90.8253,108107,125977
90.8301,108111,126019
90.8371,108102,126049
90.8401,108128,126096
90.8432,108151,126115
90.8441,108152,126135
90.8473,108188,126121
90.8517,108129,126035
90.8579,107963,125682
90.8653,107752,125136
90.8715,107533,124617
90.8768,107396,124341
90.8834,107398,124243
90.8857,107358,124271
90.8894,107420,124371
90.8904,107467,124427
90.8915,107503,124482
90.8935,107529,124564
91.2826,107554,124606
91.2826,107578,124645
91.2985,107581,124599
91.3085,107551,124525
91.3113,107472,124418
91.3174,107429,124407
91.3201,107445,124362
91.3231,107428,124412
91.3361,107469,124477
91.3411,107534,124560
91.3444,107576,124620
91.3493,107597,124755
91.3529,107676,124898
91.3529,107711,124977
91.3584,107715,125024
91.361,107731,125062
91.361,107761,125092
91.3659,107754,125079
91.3679,107772,125110
91.3689,107786,125151
91.3704,107768,125160
91.3715,107801,125171
91.3755,107786,125286
91.3785,107808,125295
91.3818,107827,125333
91.7911,107864,125398
91.7953,107940,125466
91.8017,107910,125495
91.8027,107899,125489
91.8137,107934,125543
91.816,107970,125643
91.8188,107991,125691
91.8252,108064,125750
91.8262,108035,125812
91.8262,107996,125718
91.8262,107806,125318
91.8329,107557,124713
91.8349,107353,124243
91.8376,107235,123914
91.8376,107209,123809
91.8376,107207,123844
91.8404,107295,123945
91.8404,107327,124039
91.8404,107357,124135
91.8414,107360,124204
91.8414,107421,124301
91.8424,107427,124391
91.8424,107447,124416
91.8434,107447,124414
91.8434,107444,124448
92.2824,107444,124439
92.2914,107448,124444
92.2914,107466,124480
92.2914,107483,124525
92.2971,107528,124585
92.299,107577,124685
92.3011,107607,124776
92.3024,107639,124823
92.3051,107655,124883
92.3062,107668,124931
92.3092,107670,124932
92.3123,107680,124902
92.3133,107681,124897
92.3143,107666,124922
92.3173,107708,124957
92.3301,107757,125068
92.3422,107835,125224
92.3444,107911,125415
92.3474,107993,125656
92.352,108121,125952
92.355,108193,126201
92.356,108296,126378
92.358,108351,126554
92.3658,108387,126657
92.3708,108460,126730
92.7901,108481,126849
92.7921,108489,126801
92.8064,108502,126837
92.8152,108522,126869
92.8193,108525,126883
92.8234,108356,126538
92.8306,108077,125887
92.8344,107766,125204
92.8361,107583,124744
92.8379,107457,124423
92.8484,107412,124272
92.8555,107429,124319
92.8648,107444,124352
92.8648,107476,124387
92.8737,107492,124426
92.8757,107545,124548
92.8787,107562,124608
92.8836,107553,124607
92.8856,107559,124625
92.8865,107582,124679
92.8865,107616,124811
92.8895,107668,124914
92.8935,107717,124985
92.8985,107740,125055
92.8995,107769,125074
93.2827,107761,125113
93.2827,107801,125149
93.2827,107849,125249
93.2956,107907,125371
93.2988,107993,125515
93.3007,108072,125686
93.3032,108146,125874
93.3043,108220,126011
93.3067,108264,126137
93.3087,108329,126212
93.3167,108345,126281
93.3291,108364,126319
93.3352,108424,126422
93.3378,108493,126575
93.3397,108557,126726
93.3445,108617,126866
93.346,108677,126991
93.349,108729,127090
93.3518,108772,127227
93.3584,108831,127314
93.367,108859,127430
93.3715,108926,127535
93.3772,108962,127640
93.3792,108993,127693
93.3863,108901,127490
93.8022,108646,126953
93.8022,108414,126363
93.8084,108230,125944
93.8198,108174,125730
93.8198,108153,125702
93.8324,108185,125757
93.8354,108217,125848
93.8393,108236,125886
93.8468,108241,125917
93.85,108257,125962
93.8508,108294,126031
93.8564,108293,125998
93.8626,108249,125938
93.8651,108243,125885
93.8669,108230,125897
93.8689,108278,125952
93.8699,108323,126064
93.8699,108417,126268
93.8728,108495,126480
93.8739,108610,126722
93.8759,108702,126918
93.8794,108755,127086
93.8824,108819,127220
93.8844,108872,127297
93.8844,108897,127347
94.2837,108881,127378
94.2993,108881,127342
94.2993,108870,127269
94.2993,108864,127275
94.3049,108827,127156
94.3098,108767,127039
94.3141,108669,126761
94.3161,108579,126488
94.3312,108496,126223
94.3425,108539,126239
94.3444,108601,126380
94.3444,108733,126645
94.349,108866,126969
94.3538,109026,127377
94.3548,109211,127781
94.3588,109370,128134
94.3609,109469,128383
94.3647,109373,128237
94.3681,109189,127790
94.3691,109046,127405
94.3713,108945,127187
94.3726,108949,127161
94.3726,108998,127262
94.3726,109095,127439
94.3804,109171,127601
94.8235,109221,127726
94.8393,109277,127870
94.8453,109325,128006
94.8483,109390,128146
94.8569,109425,128214
94.8669,109410,128194
94.8777,109406,128145
94.8818,109398,128168
94.8856,109431,128225
94.8882,109475,128282
94.8946,109528,128381
94.8986,109583,128468
94.9015,109618,128567
94.9045,109664,128662
94.9071,109714,128755
94.9094,109732,128818
94.9104,109771,128858
94.9134,109778,128876
94.9189,109785,128857
94.9219,109791,128861
94.9219,109791,128844
94.9219,109793,128857
94.9219,109806,128873
94.9219,109845,128970
94.9257,109870,129062
95.3012,109918,129136
95.3097,109938,129176
95.3134,109965,129216
95.3164,109966,129222
95.3164,109956,129184
95.3219,109926,129153
95.3265,109952,129180
95.3265,109975,129232
95.3327,110013,129347
95.3337,110051,129433
95.3375,110012,129420
95.3398,109833,129015
95.3412,109551,128382
95.3515,109322,127858
95.3515,109200,127550
95.3515,109199,127514
95.3579,109266,127644
95.3648,109325,127837
95.3686,109383,127935
95.3739,109389,127949
95.3759,109352,127860
95.3787,109331,127784
95.3817,109325,127752
95.3898,109316,127694
95.3918,109274,127628
95.7907,109280,127633
95.7907,109269,127614
95.8064,109300,127678
95.8134,109336,127806
95.8159,109419,127960
95.8159,109501,128117
95.8259,109561,128297
95.83,109635,128453
95.8335,109677,128552
95.8389,109724,128665
95.8399,109745,128728
95.8409,109779,128799
95.8409,109814,128870
95.8438,109828,128900
95.8479,109849,128943
95.8527,109877,129000
95.8527,109917,129089
95.8527,109917,129120
95.8527,109902,129133
95.855,109951,129214
95.855,109992,129287
95.855,110008,129408
95.856,110076,129543
95.856,110127,129643
95.857,110135,129698
96.295,110160,129747
96.295,110175,129781
96.295,110184,129830
96.295,110194,129827
96.295,110091,129595
96.3074,109816,129009
96.3085,109535,128342
96.3101,109318,127823
96.3101,109197,127494
96.3101,109159,127426
96.3173,109221,127560
96.3187,109300,127730
96.3207,109340,127859
96.3227,109376,127899
96.3257,109372,127976
96.3272,109436,128089
96.3439,109487,128187
96.3529,109478,128167
96.3567,109484,128118
96.3593,109438,128097
96.3648,109438,128080
96.3683,109446,128121
96.3703,109473,128167
96.3734,109502,128261
96.3863,109563,128412
96.8025,109627,128582
96.8025,109686,128739
96.8114,109745,128846
96.8166,109794,128960
96.8212,109809,129024
96.8241,109834,129082
96.8349,109884,129175
96.8415,109892,129200
96.8447,109937,129262
96.8498,109946,129324
96.8544,109976,129360
96.8584,109990,129425
96.8642,110031,129519
96.8669,110088,129629
96.8669,110126,129710
96.8702,110162,129779
96.8722,110179,129849
96.8746,110185,129913
96.8784,110238,129990
96.8817,110264,130095
96.8827,110325,130198
96.8827,110325,130241
96.8827,110190,129954
96.8837,109909,129310
96.8846,109647,128650
97.2922,109464,128203
97.2922,109383,128007
97.3079,109410,127982
97.3116,109427,128101
97.3161,109496,128224
97.3224,109518,128315
97.3292,109550,128374
97.333,109569,128473
97.335,109626,128566
97.3389,109677,128650
97.3409,109666,128680
97.3429,109675,128641
97.3445,109652,128621
97.3518,109642,128560
97.3529,109631,128579
97.3529,109649,128633
97.3529,109716,128758
97.3529,109807,128907
97.3558,109859,129074
97.3558,109924,129230
97.3558,109964,129373
97.3568,110028,129452
97.3568,110027,129483
97.3578,110033,129491
97.3585,110064,129561
97.8001,110065,129565
97.8021,110105,129622
97.8041,110090,129685
97.8168,110185,129764
97.8232,110209,129824
97.8303,110218,129832
97.8333,110227,129886
97.837,110228,129906
97.837,110251,129960
97.8467,110251,130013
97.8477,110276,130062
97.8506,110250,130046
97.8578,110289,130085
97.8649,110253,130038
97.8717,110016,129544
97.878,109711,128859
97.8787,109465,128182
97.8856,109284,127797
97.8899,109292,127775
97.8927,109298,127839
97.8927,109348,127942
97.8963,109403,128015
97.8973,109426,128106
97.9002,109438,128137
97.9022,109470,128207
98.3065,109499,128309
98.3065,109533,128370
98.3065,109553,128403
98.3065,109509,128327
98.3145,109505,128290
98.3196,109501,128194
98.3253,109442,128142
98.3289,109528,128139
98.3338,109488,128231
98.3363,109534,128331
98.3371,109565,128457
98.3371,109592,128569
98.3433,109655,128623
98.3464,109698,128705
98.3464,109715,128754
98.3514,109712,128877
98.3514,109725,128867
98.3525,109832,129000
98.3535,109837,129122
98.3535,109898,129160
98.3535,109895,129256
98.3545,109906,129293
98.3545,109935,129304
98.3555,109945,129344
98.3555,109952,129295
98.8016,109908,129247
98.8159,109889,129270
98.8271,109863,129273
98.8297,109877,129217
98.8361,109858,129155
98.8407,109820,129041
98.8432,109625,128576
98.853,109326,127933
98.8639,109037,127256
98.8692,108840,126775
98.8719,108759,126544
98.8783,108698,126472
98.8834,108798,126546
98.8873,108775,126574
98.8899,108776,126595
98.8909,108810,126603
98.892,108819,126677
98.8941,108870,126741
98.8962,108856,126825
98.8998,108860,126820
98.9026,108885,126793
98.9046,108863,126749
98.9046,108889,126776
98.9056,108901,126784
98.9062,108924,126869
99.3025,108938,126922
99.3025,108988,127035
99.3116,109043,127119
99.3168,109085,127203
99.3198,109106,127300
99.3208,109167,127406
99.3228,109237,127499
99.3263,109282,127655
99.3293,109300,127760
99.3314,109351,127882
99.3338,109392,127992
99.3499,109444,128095
99.3571,109497,128209
99.3605,109532,128294
99.364,109597,128491
99.3694,109682,128620
99.371,109717,128796
99.371,109794,128926
99.371,109865,129040
99.3807,109901,129185
99.3827,109956,129248
99.3867,109999,129418
99.3897,110050,129535
99.3918,110065,129580
99.3918,109987,129384
99.8062,109775,128908
99.8106,109509,128336
99.8106,109309,127855
99.8176,109221,127607
99.8196,109209,127538
99.8255,109229,127654
99.8265,109272,127748
99.8295,109316,127829
99.8305,109358,127951
99.8356,109396,128057
99.8388,109457,128206
99.8388,109471,128306
99.8612,109507,128305
99.8834,109499,128320
99.9065,109498,128353
99.9176,109504,128339
99.9306,109522,128367
99.9322,109553,128441
99.9346,109611,128546
99.948,109632,128653
99.955,109700,128758
99.9641,109725,128887
99.9671,109769,128969
99.9686,109805,129048
99.9746,109813,129103
100.3031,109860,129163
100.3053,109874,129184
100.3073,109869,129217
100.3103,109902,129255
100.3128,109924,129311
100.3153,109945,129334
100.3173,109943,129359
100.3364,109953,129377
100.3431,109972,129391
100.3522,109960,129398
100.3562,109978,129399
100.3633,110001,129395
100.3653,110005,129419
100.3717,110028,129453
100.3797,110047,129494
100.3838,110076,129549
100.3886,110103,129578
100.3925,110042,129463
100.3932,109871,129092
100.4003,109719,128700
100.4024,109647,128423
100.4083,109609,128333
100.4093,109630,128397
100.4103,109697,128512
100.4103,109740,128625
100.8002,109751,128693
100.8002,109765,128693
100.8085,109763,128708
100.8274,109773,128684
100.8359,109731,128618
100.8419,109692,128515
100.8484,109640,128445
100.8514,109660,128406
100.8637,109661,128432
100.8646,109687,128498
100.8755,109751,128627
100.8791,109861,128855
100.8846,109993,129168
100.8902,110220,129663
100.8936,110554,130369
100.8936,110950,131261
100.9017,111525,132487
100.9027,112129,133822
100.9037,112718,135134
100.907,113211,136237
100.9106,113629,137232
100.9183,114040,138061
100.9183,114702,139168
100.9193,115038,139966
100.9193,114558,139886
101.3019,113111,138371
101.3091,109671,133694
101.3091,103198,125464
101.3134,98963,119340
101.3157,98890,115415
101.3192,94335,106744
101.3274,87935,95957
101.3318,75760,79433
101.3318,64471,66816
101.3318,53692,55881
101.3355,44454,46624
101.3355,37522,40053
101.3365,31535,34329
101.3373,33341,35240
101.3391,58617,66764
101.3397,74859,91385
101.3409,84830,90980
101.3409,62915,63290
101.3409,32768,32768
101.342,7575,8151
101.343,3686,4095
101.3459,2354,2604
101.3467,1997,2129
101.3467,1856,1958
101.3509,1817,1901
101.8162,1799,1890
101.8162,1808,1915
101.8305,1848,1982
101.8369,1825,2011
101.841,1641,1908
101.842,1482,1743
101.844,1370,1575
101.8509,1286,1433
101.8536,1258,1321
101.8575,1237,1249
101.8575,1229,1217
101.8654,1222,1228
101.8675,1228,1218
101.8727,1224,1230
101.8748,1221,1243
101.8767,1225,1289
101.8787,1236,1304
101.8813,1236,1337
101.8833,1227,1344
101.886,1231,1343
101.8901,1240,1326
101.8941,1227,1293
101.8952,1218,1277
101.898,1219,1218
101.9,1221,1158
